 -3.0401610e+000	
 -3.0374150e+000	
 -3.0331420e+000	
 -3.0310060e+000	
 -3.0282590e+000	
 -3.0258180e+000	
 -3.0255130e+000	
 -3.0239870e+000	
 -3.0221560e+000	
 -3.0209350e+000	
 -3.0218510e+000	
 -3.0242920e+000	
 -3.0249020e+000	
 -3.0245970e+000	
 -3.0209350e+000	
 -3.0191040e+000	
 -3.0178830e+000	
 -3.0172730e+000	
 -3.0160520e+000	
 -3.0139160e+000	
 -3.0108640e+000	
 -3.0075070e+000	
 -3.0053710e+000	
 -3.0020140e+000	
 -3.0017090e+000	
 -2.9971310e+000	
 -2.9977420e+000	
 -2.9946900e+000	
 -2.9943850e+000	
 -2.9940800e+000	
 -2.9940800e+000	
 -2.9937740e+000	
 -2.9919430e+000	
 -2.9910280e+000	
 -2.9901120e+000	
 -2.9885860e+000	
 -2.9885860e+000	
 -2.9867550e+000	
 -2.9852290e+000	
 -2.9830930e+000	
 -2.9824830e+000	
 -2.9837040e+000	
 -2.9806520e+000	
 -2.9785160e+000	
 -2.9760740e+000	
 -2.9739380e+000	
 -2.9714970e+000	
 -2.9693600e+000	
 -2.9696660e+000	
 -2.9681400e+000	
 -2.9690550e+000	
 -2.9687500e+000	
 -2.9693600e+000	
 -2.9690550e+000	
 -2.9705810e+000	
 -2.9708860e+000	
 -2.9730220e+000	
 -2.9733280e+000	
 -2.9733280e+000	
 -2.9711910e+000	
 -2.9684450e+000	
 -2.9650880e+000	
 -2.9644780e+000	
 -2.9666140e+000	
 -2.9653930e+000	
 -2.9641720e+000	
 -2.9623410e+000	
 -2.9608150e+000	
 -2.9611210e+000	
 -2.9580690e+000	
 -2.9544070e+000	
 -2.9531860e+000	
 -2.9513550e+000	
 -2.9467770e+000	
 -2.9437260e+000	
 -2.9403690e+000	
 -2.9367070e+000	
 -2.9342650e+000	
 -2.9324340e+000	
 -2.9302980e+000	
 -2.9278560e+000	
 -2.9272460e+000	
 -2.9260250e+000	
 -2.9241940e+000	
 -2.9245000e+000	
 -2.9245000e+000	
 -2.9245000e+000	
 -2.9254150e+000	
 -2.9238890e+000	
 -2.9238890e+000	
 -2.9208370e+000	
 -2.9220580e+000	
 -2.9208370e+000	
 -2.9199220e+000	
 -2.9168700e+000	
 -2.9162600e+000	
 -2.9156490e+000	
 -2.9147340e+000	
 -2.9132080e+000	
 -2.9129030e+000	
 -2.9122920e+000	
 -2.9138180e+000	
 -2.9141240e+000	
 -2.9144290e+000	
 -2.9144290e+000	
 -2.9147340e+000	
 -2.9159550e+000	
 -2.9171750e+000	
 -2.9153440e+000	
 -2.9138180e+000	
 -2.9125980e+000	
 -2.9116820e+000	
 -2.9089360e+000	
 -2.9043580e+000	
 -2.9006960e+000	
 -2.8976440e+000	
 -2.8955080e+000	
 -2.8939820e+000	
 -2.8939820e+000	
 -2.8942870e+000	
 -2.8939820e+000	
 -2.8933720e+000	
 -2.8930660e+000	
 -2.8918460e+000	
 -2.8948970e+000	
 -2.8921510e+000	
 -2.8894040e+000	
 -2.8890990e+000	
 -2.8878780e+000	
 -2.8851320e+000	
 -2.8808590e+000	
 -2.8790280e+000	
 -2.8765870e+000	
 -2.8741460e+000	
 -2.8717040e+000	
 -2.8695680e+000	
 -2.8680420e+000	
 -2.8683470e+000	
 -2.8665160e+000	
 -2.8656010e+000	
 -2.8640750e+000	
 -2.8607180e+000	
 -2.8591920e+000	
 -2.8610230e+000	
 -2.8634640e+000	
 -2.8659060e+000	
 -2.8683470e+000	
 -2.8680420e+000	
 -2.8686520e+000	
 -2.8677370e+000	
 -2.8652950e+000	
 -2.8659060e+000	
 -2.8634640e+000	
 -2.8610230e+000	
 -2.8567500e+000	
 -2.8506470e+000	
 -2.8451540e+000	
 -2.8390500e+000	
 -2.8314210e+000	
 -2.8231810e+000	
 -2.8167720e+000	
 -2.8100590e+000	
 -2.8033450e+000	
 -2.7978520e+000	
 -2.7880860e+000	
 -2.7774050e+000	
 -2.7658080e+000	
 -2.7563480e+000	
 -2.7462770e+000	
 -2.7337650e+000	
 -2.7185060e+000	
 -2.7059940e+000	
 -2.6937870e+000	
 -2.6824950e+000	
 -2.6705930e+000	
 -2.6611330e+000	
 -2.6528930e+000	
 -2.6455690e+000	
 -2.6354980e+000	
 -2.6260380e+000	
 -2.6162720e+000	
 -2.6074220e+000	
 -2.5976560e+000	
 -2.5878910e+000	
 -2.5808720e+000	
 -2.5744630e+000	
 -2.5665280e+000	
 -2.5595090e+000	
 -2.5543210e+000	
 -2.5466920e+000	
 -2.5411990e+000	
 -2.5323490e+000	
 -2.5225830e+000	
 -2.5146480e+000	
 -2.5048830e+000	
 -2.4978640e+000	
 -2.4920650e+000	
 -2.4826050e+000	
 -2.4746700e+000	
 -2.4639890e+000	
 -2.4530030e+000	
 -2.4426270e+000	
 -2.4346920e+000	
 -2.4276730e+000	
 -2.4194340e+000	
 -2.4133300e+000	
 -2.4066160e+000	
 -2.4002080e+000	
 -2.3956300e+000	
 -2.3904420e+000	
 -2.3852540e+000	
 -2.3800660e+000	
 -2.3757930e+000	
 -2.3736570e+000	
 -2.3696900e+000	
 -2.3703000e+000	
 -2.3715210e+000	
 -2.3730470e+000	
 -2.3748780e+000	
 -2.3803710e+000	
 -2.3846440e+000	
 -2.3880000e+000	
 -2.3916630e+000	
 -2.3980710e+000	
 -2.4035640e+000	
 -2.4075320e+000	
 -2.4121090e+000	
 -2.4157710e+000	
 -2.4203490e+000	
 -2.4270630e+000	
 -2.4328610e+000	
 -2.4404910e+000	
 -2.4453740e+000	
 -2.4493410e+000	
 -2.4551390e+000	
 -2.4600220e+000	
 -2.4636840e+000	
 -2.4682620e+000	
 -2.4740600e+000	
 -2.4792480e+000	
 -2.4829100e+000	
 -2.4877930e+000	
 -2.4923710e+000	
 -2.4984740e+000	
 -2.5054930e+000	
 -2.5140380e+000	
 -2.5222780e+000	
 -2.5332640e+000	
 -2.5427250e+000	
 -2.5518800e+000	
 -2.5622560e+000	
 -2.5723270e+000	
 -2.5839230e+000	
 -2.5939940e+000	
 -2.6058960e+000	
 -2.6187130e+000	
 -2.6303100e+000	
 -2.6434330e+000	
 -2.6577760e+000	
 -2.6693730e+000	
 -2.6821900e+000	
 -2.6971440e+000	
 -2.7096560e+000	
 -2.7215580e+000	
 -2.7337650e+000	
 -2.7438350e+000	
 -2.7536010e+000	
 -2.7627560e+000	
 -2.7737430e+000	
 -2.7859500e+000	
 -2.7963260e+000	
 -2.8082280e+000	
 -2.8158570e+000	
 -2.8231810e+000	
 -2.8302000e+000	
 -2.8366090e+000	
 -2.8442380e+000	
 -2.8524780e+000	
 -2.8576660e+000	
 -2.8628540e+000	
 -2.8680420e+000	
 -2.8729250e+000	
 -2.8771970e+000	
 -2.8814700e+000	
 -2.8836060e+000	
 -2.8860470e+000	
 -2.8887940e+000	
 -2.8942870e+000	
 -2.8961180e+000	
 -2.9010010e+000	
 -2.8976440e+000	
 -2.8955080e+000	
 -2.8915410e+000	
 -2.8869630e+000	
 -2.8869630e+000	
 -2.8881840e+000	
 -2.8909300e+000	
 -2.8921510e+000	
 -2.8936770e+000	
 -2.8942870e+000	
 -2.8936770e+000	
 -2.8961180e+000	
 -2.8967290e+000	
 -2.8988650e+000	
 -2.9025270e+000	
 -2.9052730e+000	
 -2.9064940e+000	
 -2.9080200e+000	
 -2.9086300e+000	
 -2.9104610e+000	
 -2.9129030e+000	
 -2.9113770e+000	
 -2.9104610e+000	
 -2.9110720e+000	
 -2.9098510e+000	
 -2.9101560e+000	
 -2.9098510e+000	
 -2.9092410e+000	
 -2.9089360e+000	
 -2.9067990e+000	
 -2.9092410e+000	
 -2.9095460e+000	
 -2.9135130e+000	
 -2.9162600e+000	
 -2.9205320e+000	
 -2.9245000e+000	
 -2.9266360e+000	
 -2.9324340e+000	
 -2.9385380e+000	
 -2.9455570e+000	
 -2.9516600e+000	
 -2.9550170e+000	
 -2.9583740e+000	
 -2.9650880e+000	
 -2.9724120e+000	
 -2.9769900e+000	
 -2.9833980e+000	
 -2.9873660e+000	
 -2.9901120e+000	
 -2.9891970e+000	
 -2.9806520e+000	
 -2.9656980e+000	
 -2.9440310e+000	
 -2.9174800e+000	
 -2.8848270e+000	
 -2.8442380e+000	
 -2.7975460e+000	
 -2.7456670e+000	
 -2.6861570e+000	
 -2.6113890e+000	
 -2.5222780e+000	
 -2.4191280e+000	
 -2.2982790e+000	
 -2.1643070e+000	
 -2.0184330e+000	
 -1.8569950e+000	
 -1.6821290e+000	
 -1.4926150e+000	
 -1.2863160e+000	
 -1.0687260e+000	
 -8.3496100e-001	
 -5.9112500e-001	
 -3.4057600e-001	
 -1.0498000e-001	
  9.5520000e-002	
  2.7374300e-001	
  4.4006300e-001	
  5.8410600e-001	
  7.0617700e-001	
  8.1543000e-001	
  9.1125500e-001	
  9.9853500e-001	
  1.0723880e+000	
  1.1431880e+000	
  1.2075810e+000	
  1.2658690e+000	
  1.3192750e+000	
  1.3653560e+000	
  1.4022830e+000	
  1.4328000e+000	
  1.4532470e+000	
  1.4398190e+000	
  1.3906860e+000	
  1.3195800e+000	
  1.2307740e+000	
  1.1288450e+000	
  1.0025020e+000	
  8.5510300e-001	
  6.9244400e-001	
  5.1727300e-001	
  3.3111600e-001	
  1.3275100e-001	
 -7.2632000e-002	
 -2.8289800e-001	
 -4.8950200e-001	
 -6.9610600e-001	
 -8.9386000e-001	
 -1.0830690e+000	
 -1.2619020e+000	
 -1.4297490e+000	
 -1.5853880e+000	
 -1.7239380e+000	
 -1.8463130e+000	
 -1.9580080e+000	
 -2.0599370e+000	
 -2.1551510e+000	
 -2.2421260e+000	
 -2.3239140e+000	
 -2.3992920e+000	
 -2.4707030e+000	
 -2.5387570e+000	
 -2.6019290e+000	
 -2.6608280e+000	
 -2.7166750e+000	
 -2.7679440e+000	
 -2.8155520e+000	
 -2.8573610e+000	
 -2.8964230e+000	
 -2.9339600e+000	
 -2.9678340e+000	
 -2.9980470e+000	
 -3.0249020e+000	
 -3.0496220e+000	
 -3.0703740e+000	
 -3.0871580e+000	
 -3.1008910e+000	
 -3.1106570e+000	
 -3.1192020e+000	
 -3.1237790e+000	
 -3.1250000e+000	
 -3.1240840e+000	
 -3.1216430e+000	
 -3.1158450e+000	
 -3.1069950e+000	
 -3.0975340e+000	
 -3.0896000e+000	
 -3.0822750e+000	
 -3.0703740e+000	
 -3.0587770e+000	
 -3.0444340e+000	
 -3.0343630e+000	
 -3.0233760e+000	
 -3.0148320e+000	
 -3.0056760e+000	
 -2.9937740e+000	
 -2.9815670e+000	
 -2.9626460e+000	
 -2.9467770e+000	
 -2.9290770e+000	
 -2.9159550e+000	
 -2.9071040e+000	
 -2.8961180e+000	
 -2.8839110e+000	
 -2.8729250e+000	
 -2.8622440e+000	
 -2.8491210e+000	
 -2.8359990e+000	
 -2.8234860e+000	
 -2.8118900e+000	
 -2.7990720e+000	
 -2.7896120e+000	
 -2.7795410e+000	
 -2.7706910e+000	
 -2.7581790e+000	
 -2.7471920e+000	
 -2.7386470e+000	
 -2.7258300e+000	
 -2.7139280e+000	
 -2.7047730e+000	
 -2.6940920e+000	
 -2.6858520e+000	
 -2.6760860e+000	
 -2.6672360e+000	
 -2.6593020e+000	
 -2.6504520e+000	
 -2.6419070e+000	
 -2.6354980e+000	
 -2.6281740e+000	
 -2.6229860e+000	
 -2.6174930e+000	
 -2.6101680e+000	
 -2.6037600e+000	
 -2.5991820e+000	
 -2.5946040e+000	
 -2.5891110e+000	
 -2.5854490e+000	
 -2.5799560e+000	
 -2.5732420e+000	
 -2.5677490e+000	
 -2.5634770e+000	
 -2.5570680e+000	
 -2.5521850e+000	
 -2.5469970e+000	
 -2.5418090e+000	
 -2.5369260e+000	
 -2.5308230e+000	
 -2.5244140e+000	
 -2.5152590e+000	
 -2.5073240e+000	
 -2.4960330e+000	
 -2.4877930e+000	
 -2.4789430e+000	
 -2.4740600e+000	
 -2.4676510e+000	
 -2.4600220e+000	
 -2.4496460e+000	
 -2.4432370e+000	
 -2.4328610e+000	
 -2.4243160e+000	
 -2.4160770e+000	
 -2.4047850e+000	
 -2.3974610e+000	
 -2.3876950e+000	
 -2.3785400e+000	
 -2.3712160e+000	
 -2.3641970e+000	
 -2.3550420e+000	
 -2.3474120e+000	
 -2.3333740e+000	
 -2.3226930e+000	
 -2.3123170e+000	
 -2.3037720e+000	
 -2.2955320e+000	
 -2.2875980e+000	
 -2.2787480e+000	
 -2.2698970e+000	
 -2.2622680e+000	
 -2.2543330e+000	
 -2.2460940e+000	
 -2.2369380e+000	
 -2.2262570e+000	
 -2.2122190e+000	
 -2.1981810e+000	
 -2.1871950e+000	
 -2.1743770e+000	
 -2.1652220e+000	
 -2.1524050e+000	
 -2.1401980e+000	
 -2.1286010e+000	
 -2.1176150e+000	
 -2.1069340e+000	
 -2.0965580e+000	
 -2.0864870e+000	
 -2.0748900e+000	
 -2.0605470e+000	
 -2.0452880e+000	
 -2.0315550e+000	
 -2.0187380e+000	
 -2.0059200e+000	
 -1.9934080e+000	
 -1.9793700e+000	
 -1.9671630e+000	
 -1.9506840e+000	
 -1.9357300e+000	
 -1.9186400e+000	
 -1.9027710e+000	
 -1.8875120e+000	
 -1.8753050e+000	
 -1.8594360e+000	
 -1.8432620e+000	
 -1.8273930e+000	
 -1.8093870e+000	
 -1.7922970e+000	
 -1.7739870e+000	
 -1.7538450e+000	
 -1.7379760e+000	
 -1.7202760e+000	
 -1.7031860e+000	
 -1.6870120e+000	
 -1.6671750e+000	
 -1.6482540e+000	
 -1.6293330e+000	
 -1.6104130e+000	
 -1.5924070e+000	
 -1.5771480e+000	
 -1.5594480e+000	
 -1.5423580e+000	
 -1.5289310e+000	
 -1.5155030e+000	
 -1.5020750e+000	
 -1.4877320e+000	
 -1.4752200e+000	
 -1.4611820e+000	
 -1.4456180e+000	
 -1.4309690e+000	
 -1.4144900e+000	
 -1.3992310e+000	
 -1.3839720e+000	
 -1.3735960e+000	
 -1.3632200e+000	
 -1.3528440e+000	
 -1.3385010e+000	
 -1.3259890e+000	
 -1.3134770e+000	
 -1.3015750e+000	
 -1.2911990e+000	
 -1.2768550e+000	
 -1.2701420e+000	
 -1.2625120e+000	
 -1.2570190e+000	
 -1.2512210e+000	
 -1.2496950e+000	
 -1.2475590e+000	
 -1.2475590e+000	
 -1.2463380e+000	
 -1.2451170e+000	
 -1.2438960e+000	
 -1.2426760e+000	
 -1.2442020e+000	
 -1.2448120e+000	
 -1.2454220e+000	
 -1.2500000e+000	
 -1.2542720e+000	
 -1.2582400e+000	
 -1.2631230e+000	
 -1.2683110e+000	
 -1.2722780e+000	
 -1.2786870e+000	
 -1.2866210e+000	
 -1.2948610e+000	
 -1.3024900e+000	
 -1.3131710e+000	
 -1.3244630e+000	
 -1.3369750e+000	
 -1.3504030e+000	
 -1.3635250e+000	
 -1.3775630e+000	
 -1.3928220e+000	
 -1.4108280e+000	
 -1.4288330e+000	
 -1.4477540e+000	
 -1.4688110e+000	
 -1.4898680e+000	
 -1.5115360e+000	
 -1.5347290e+000	
 -1.5588380e+000	
 -1.5835570e+000	
 -1.6094970e+000	
 -1.6351320e+000	
 -1.6613770e+000	
 -1.6888430e+000	
 -1.7156980e+000	
 -1.7428590e+000	
 -1.7700200e+000	
 -1.7996220e+000	
 -1.8301390e+000	
 -1.8609620e+000	
 -1.8905640e+000	
 -1.9219970e+000	
 -1.9534300e+000	
 -1.9854740e+000	
 -2.0172120e+000	
 -2.0492550e+000	
 -2.0794680e+000	
 -2.1127320e+000	
 -2.1420290e+000	
 -2.1719360e+000	
 -2.2030640e+000	
 -2.2360230e+000	
 -2.2659300e+000	
 -2.2973630e+000	
 -2.3278810e+000	
 -2.3596190e+000	
 -2.3883060e+000	
 -2.4157710e+000	
 -2.4432370e+000	
 -2.4694820e+000	
 -2.4969480e+000	
 -2.5238040e+000	
 -2.5491330e+000	
 -2.5756840e+000	
 -2.6004030e+000	
 -2.6248170e+000	
 -2.6489260e+000	
 -2.6727290e+000	
 -2.6974490e+000	
 -2.7215580e+000	
 -2.7450560e+000	
 -2.7682500e+000	
 -2.7902220e+000	
 -2.8131100e+000	
 -2.8359990e+000	
 -2.8567500e+000	
 -2.8781130e+000	
 -2.8985600e+000	
 -2.9187010e+000	
 -2.9342650e+000	
 -2.9501340e+000	
 -2.9666140e+000	
 -2.9812620e+000	
 -2.9986570e+000	
 -3.0117800e+000	
 -3.0230710e+000	
 -3.0349730e+000	
 -3.0477910e+000	
 -3.0609130e+000	
 -3.0718990e+000	
 -3.0828860e+000	
 -3.0935670e+000	
 -3.1033330e+000	
 -3.1134030e+000	
 -3.1225590e+000	
 -3.1332400e+000	
 -3.1442260e+000	
 -3.1515500e+000	
 -3.1597900e+000	
 -3.1683350e+000	
 -3.1762700e+000	
 -3.1832890e+000	
 -3.1906130e+000	
 -3.1991580e+000	
 -3.2058720e+000	
 -3.2107540e+000	
 -3.2135010e+000	
 -3.2162480e+000	
 -3.2192990e+000	
 -3.2238770e+000	
 -3.2281490e+000	
 -3.2321170e+000	
 -3.2351680e+000	
 -3.2363890e+000	
 -3.2424930e+000	
 -3.2473750e+000	
 -3.2504270e+000	
 -3.2537840e+000	
 -3.2547000e+000	
 -3.2586670e+000	
 -3.2620240e+000	
 -3.2656860e+000	
 -3.2669070e+000	
 -3.2675170e+000	
 -3.2696530e+000	
 -3.2693480e+000	
 -3.2693480e+000	
 -3.2690430e+000	
 -3.2690430e+000	
 -3.2687380e+000	
 -3.2666020e+000	
 -3.2653810e+000	
 -3.2653810e+000	
 -3.2650760e+000	
 -3.2653810e+000	
 -3.2632450e+000	
 -3.2617190e+000	
 -3.2595830e+000	
 -3.2553100e+000	
 -3.2504270e+000	
 -3.2495120e+000	
 -3.2440190e+000	
 -3.2391360e+000	
 -3.2366940e+000	
 -3.2351680e+000	
 -3.2342530e+000	
 -3.2360840e+000	
 -3.2342530e+000	
 -3.2327270e+000	
 -3.2315060e+000	
 -3.2287600e+000	
 -3.2247920e+000	
 -3.2214360e+000	
 -3.2208250e+000	
 -3.2180790e+000	
 -3.2168580e+000	
 -3.2141110e+000	
 -3.2104490e+000	
 -3.2080080e+000	
 -3.2052610e+000	
 -3.2031250e+000	
 -3.1988530e+000	
 -3.1954960e+000	
 -3.1924440e+000	
 -3.1915280e+000	
 -3.1900020e+000	
 -3.1878660e+000	
 -3.1860350e+000	
 -3.1835940e+000	
 -3.1811520e+000	
 -3.1787110e+000	
 -3.1747440e+000	
 -3.1710820e+000	
 -3.1683350e+000	
 -3.1613160e+000	
 -3.1570430e+000	
 -3.1558230e+000	
 -3.1564330e+000	
 -3.1536870e+000	
 -3.1509400e+000	
 -3.1527710e+000	
 -3.1518550e+000	
 -3.1518550e+000	
 -3.1509400e+000	
 -3.1509400e+000	
 -3.1506350e+000	
 -3.1500240e+000	
 -3.1512450e+000	
 -3.1533810e+000	
 -3.1546020e+000	
 -3.1549070e+000	
 -3.1576540e+000	
 -3.1576540e+000	
 -3.1576540e+000	
 -3.1582640e+000	
 -3.1594850e+000	
 -3.1625370e+000	
 -3.1607060e+000	
 -3.1610110e+000	
 -3.1616210e+000	
 -3.1619260e+000	
 -3.1640620e+000	
 -3.1634520e+000	
 -3.1640620e+000	
 -3.1640620e+000	
 -3.1622310e+000	
 -3.1585690e+000	
 -3.1524660e+000	
 -3.1491090e+000	
 -3.1469730e+000	
 -3.1448360e+000	
 -3.1445310e+000	
 -3.1402590e+000	
 -3.1356810e+000	
 -3.1320190e+000	
 -3.1311040e+000	
 -3.1268310e+000	
 -3.1237790e+000	
 -3.1222530e+000	
 -3.1222530e+000	
 -3.1250000e+000	
 -3.1289670e+000	
 -3.1301880e+000	
 -3.1317140e+000	
 -3.1307980e+000	
 -3.1338500e+000	
 -3.1353760e+000	
 -3.1353760e+000	
 -3.1335450e+000	
 -3.1320190e+000	
 -3.1311040e+000	
 -3.1289670e+000	
 -3.1274410e+000	
 -3.1271360e+000	
 -3.1259160e+000	
 -3.1253050e+000	
 -3.1234740e+000	
 -3.1253050e+000	
 -3.1289670e+000	
 -3.1314090e+000	
 -3.1347660e+000	
 -3.1378170e+000	
 -3.1384280e+000	
 -3.1387330e+000	
 -3.1384280e+000	
 -3.1399540e+000	
 -3.1411740e+000	
 -3.1405640e+000	
 -3.1420900e+000	
 -3.1417850e+000	
 -3.1420900e+000	
 -3.1436160e+000	
 -3.1457520e+000	
 -3.1472780e+000	
 -3.1475830e+000	
 -3.1488040e+000	
 -3.1518550e+000	
 -3.1527710e+000	
 -3.1530760e+000	
 -3.1530760e+000	
 -3.1536870e+000	
 -3.1552120e+000	
 -3.1564330e+000	
 -3.1561280e+000	
 -3.1561280e+000	
 -3.1564330e+000	
 -3.1539920e+000	
 -3.1512450e+000	
 -3.1491090e+000	
 -3.1478880e+000	
 -3.1478880e+000	
 -3.1488040e+000	
 -3.1488040e+000	
 -3.1481930e+000	
 -3.1484990e+000	
 -3.1463620e+000	
 -3.1460570e+000	
 -3.1457520e+000	
 -3.1451420e+000	
 -3.1454470e+000	
 -3.1466670e+000	
 -3.1466670e+000	
 -3.1472780e+000	
 -3.1472780e+000	
 -3.1457520e+000	
 -3.1451420e+000	
 -3.1445310e+000	
 -3.1463620e+000	
 -3.1463620e+000	
 -3.1475830e+000	
 -3.1478880e+000	
 -3.1454470e+000	
 -3.1439210e+000	
 -3.1430050e+000	
 -3.1430050e+000	
 -3.1423950e+000	
 -3.1414790e+000	
 -3.1414790e+000	
 -3.1408690e+000	
 -3.1399540e+000	
 -3.1402590e+000	
 -3.1390380e+000	
 -3.1344600e+000	
 -3.1323240e+000	
 -3.1298830e+000	
 -3.1262210e+000	
 -3.1271360e+000	
 -3.1259160e+000	
 -3.1228640e+000	
 -3.1204220e+000	
 -3.1192020e+000	
 -3.1188960e+000	
 -3.1179810e+000	
 -3.1188960e+000	
 -3.1192020e+000	
 -3.1210330e+000	
 -3.1213380e+000	
 -3.1225590e+000	
 -3.1204220e+000	
 -3.1192020e+000	
 -3.1198120e+000	
 -3.1204220e+000	
 -3.1231690e+000	
 -3.1216430e+000	
 -3.1207280e+000	
 -3.1185910e+000	
 -3.1185910e+000	
 -3.1164550e+000	
 -3.1158450e+000	
 -3.1146240e+000	
 -3.1143190e+000	
 -3.1118770e+000	
 -3.1127930e+000	
 -3.1118770e+000	
 -3.1121830e+000	
 -3.1106570e+000	
 -3.1109620e+000	
 -3.1137080e+000	
 -3.1143190e+000	
 -3.1146240e+000	
 -3.1146240e+000	
 -3.1143190e+000	
 -3.1140140e+000	
 -3.1106570e+000	
 -3.1069950e+000	
 -3.1045530e+000	
 -3.1039430e+000	
 -3.1015010e+000	
 -3.1002810e+000	
 -3.1008910e+000	
 -3.0981450e+000	
 -3.0923460e+000	
 -3.0853270e+000	
 -3.0813600e+000	
 -3.0764770e+000	
 -3.0728150e+000	
 -3.0694580e+000	
 -3.0654910e+000	
 -3.0630490e+000	
 -3.0599980e+000	
 -3.0554200e+000	
 -3.0499270e+000	
 -3.0426030e+000	
 -3.0383300e+000	
 -3.0340580e+000	
 -3.0307010e+000	
 -3.0291750e+000	
 -3.0279540e+000	
 -3.0252080e+000	
 -3.0227660e+000	
 -3.0230710e+000	
 -3.0249020e+000	
 -3.0212400e+000	
 -3.0187990e+000	
 -3.0172730e+000	
 -3.0163570e+000	
 -3.0151370e+000	
 -3.0117800e+000	
 -3.0093380e+000	
 -3.0068970e+000	
 -3.0047610e+000	
 -3.0020140e+000	
 -2.9989620e+000	
 -2.9986570e+000	
 -2.9971310e+000	
 -2.9953000e+000	
 -2.9931640e+000	
 -2.9922490e+000	
 -2.9925540e+000	
 -2.9919430e+000	
 -2.9940800e+000	
 -2.9946900e+000	
 -2.9959110e+000	
 -2.9953000e+000	
 -2.9959110e+000	
 -2.9943850e+000	
 -2.9977420e+000	
 -2.9986570e+000	
 -3.0023190e+000	
 -3.0047610e+000	
 -3.0078120e+000	
 -3.0102540e+000	
 -3.0114750e+000	
 -3.0111690e+000	
 -3.0117800e+000	
 -3.0133060e+000	
 -3.0130000e+000	
 -3.0133060e+000	
 -3.0136110e+000	
 -3.0136110e+000	
 -3.0136110e+000	
 -3.0126950e+000	
 -3.0123900e+000	
 -3.0111690e+000	
 -3.0093380e+000	
 -3.0093380e+000	
 -3.0093380e+000	
 -3.0105590e+000	
 -3.0108640e+000	
 -3.0111690e+000	
 -3.0099490e+000	
 -3.0114750e+000	
 -3.0114750e+000	
 -3.0130000e+000	
 -3.0114750e+000	
 -3.0078120e+000	
 -3.0038450e+000	
 -3.0010990e+000	
 -2.9971310e+000	
 -2.9943850e+000	
 -2.9946900e+000	
 -2.9907230e+000	
 -2.9891970e+000	
 -2.9855350e+000	
 -2.9824830e+000	
 -2.9800420e+000	
 -2.9760740e+000	
 -2.9733280e+000	
 -2.9696660e+000	
 -2.9641720e+000	
 -2.9565430e+000	
 -2.9516600e+000	
 -2.9458620e+000	
 -2.9412840e+000	
 -2.9367070e+000	
 -2.9302980e+000	
 -2.9205320e+000	
 -2.9071040e+000	
 -2.8970340e+000	
 -2.8854370e+000	
 -2.8735350e+000	
 -2.8637700e+000	
 -2.8518680e+000	
 -2.8421020e+000	
 -2.8335570e+000	
 -2.8228760e+000	
 -2.8152470e+000	
 -2.8060910e+000	
 -2.7987670e+000	
 -2.7896120e+000	
 -2.7835080e+000	
 -2.7725220e+000	
 -2.7612300e+000	
 -2.7548220e+000	
 -2.7481080e+000	
 -2.7404790e+000	
 -2.7340700e+000	
 -2.7261350e+000	
 -2.7163700e+000	
 -2.7069090e+000	
 -2.6989750e+000	
 -2.6910400e+000	
 -2.6803590e+000	
 -2.6693730e+000	
 -2.6571660e+000	
 -2.6464840e+000	
 -2.6348880e+000	
 -2.6245120e+000	
 -2.6120000e+000	
 -2.5976560e+000	
 -2.5839230e+000	
 -2.5726320e+000	
 -2.5616460e+000	
 -2.5515750e+000	
 -2.5436400e+000	
 -2.5350950e+000	
 -2.5213620e+000	
 -2.5119020e+000	
 -2.5024410e+000	
 -2.4960330e+000	
 -2.4887080e+000	
 -2.4841310e+000	
 -2.4774170e+000	
 -2.4752810e+000	
 -2.4716190e+000	
 -2.4679570e+000	
 -2.4707030e+000	
 -2.4722290e+000	
 -2.4719240e+000	
 -2.4722290e+000	
 -2.4737550e+000	
 -2.4771120e+000	
 -2.4783330e+000	
 -2.4804690e+000	
 -2.4844360e+000	
 -2.4862670e+000	
 -2.4880980e+000	
 -2.4905400e+000	
 -2.4926760e+000	
 -2.4932860e+000	
 -2.4966430e+000	
 -2.5009160e+000	
 -2.5054930e+000	
 -2.5106810e+000	
 -2.5149540e+000	
 -2.5207520e+000	
 -2.5253300e+000	
 -2.5286870e+000	
 -2.5332640e+000	
 -2.5384520e+000	
 -2.5433350e+000	
 -2.5473020e+000	
 -2.5515750e+000	
 -2.5592040e+000	
 -2.5668330e+000	
 -2.5717160e+000	
 -2.5814820e+000	
 -2.5857540e+000	
 -2.5930790e+000	
 -2.6019290e+000	
 -2.6092530e+000	
 -2.6190190e+000	
 -2.6300050e+000	
 -2.6440430e+000	
 -2.6574710e+000	
 -2.6724240e+000	
 -2.6861570e+000	
 -2.7001950e+000	
 -2.7139280e+000	
 -2.7258300e+000	
 -2.7386470e+000	
 -2.7511600e+000	
 -2.7633670e+000	
 -2.7767940e+000	
 -2.7862550e+000	
 -2.7963260e+000	
 -2.8060910e+000	
 -2.8152470e+000	
 -2.8231810e+000	
 -2.8292850e+000	
 -2.8359990e+000	
 -2.8421020e+000	
 -2.8460690e+000	
 -2.8506470e+000	
 -2.8533940e+000	
 -2.8567500e+000	
 -2.8610230e+000	
 -2.8668210e+000	
 -2.8707890e+000	
 -2.8775020e+000	
 -2.8805540e+000	
 -2.8823850e+000	
 -2.8863530e+000	
 -2.8881840e+000	
 -2.8921510e+000	
 -2.8961180e+000	
 -2.8979490e+000	
 -2.8985600e+000	
 -2.9022220e+000	
 -2.9046630e+000	
 -2.9080200e+000	
 -2.9125980e+000	
 -2.9165650e+000	
 -2.9211430e+000	
 -2.9241940e+000	
 -2.9266360e+000	
 -2.9302980e+000	
 -2.9321290e+000	
 -2.9360960e+000	
 -2.9400630e+000	
 -2.9425050e+000	
 -2.9437260e+000	
 -2.9467770e+000	
 -2.9464720e+000	
 -2.9489140e+000	
 -2.9516600e+000	
 -2.9534910e+000	
 -2.9544070e+000	
 -2.9553220e+000	
 -2.9553220e+000	
 -2.9574580e+000	
 -2.9574580e+000	
 -2.9547120e+000	
 -2.9547120e+000	
 -2.9544070e+000	
 -2.9537960e+000	
 -2.9534910e+000	
 -2.9544070e+000	
 -2.9553220e+000	
 -2.9550170e+000	
 -2.9565430e+000	
 -2.9571530e+000	
 -2.9586790e+000	
 -2.9599000e+000	
 -2.9605100e+000	
 -2.9595950e+000	
 -2.9592900e+000	
 -2.9599000e+000	
 -2.9605100e+000	
 -2.9644780e+000	
 -2.9681400e+000	
 -2.9721070e+000	
 -2.9736330e+000	
 -2.9794310e+000	
 -2.9818730e+000	
 -2.9870610e+000	
 -2.9925540e+000	
 -3.0017090e+000	
 -3.0099490e+000	
 -3.0178830e+000	
 -3.0218510e+000	
 -3.0258180e+000	
 -3.0221560e+000	
 -3.0145260e+000	
 -3.0014040e+000	
 -2.9812620e+000	
 -2.9519650e+000	
 -2.9122920e+000	
 -2.8668210e+000	
 -2.8112790e+000	
 -2.7481080e+000	
 -2.6727290e+000	
 -2.5802610e+000	
 -2.4771120e+000	
 -2.3587040e+000	
 -2.2311400e+000	
 -2.0883180e+000	
 -1.9342040e+000	
 -1.7666630e+000	
 -1.5832520e+000	
 -1.3839720e+000	
 -1.1749270e+000	
 -9.5611600e-001	
 -7.2265600e-001	
 -4.8095700e-001	
 -2.5116000e-001	
 -4.0283000e-002	
  1.5045200e-001	
  3.1982400e-001	
  4.6814000e-001	
  5.9692400e-001	
  7.1258500e-001	
  8.1543000e-001	
  9.1186500e-001	
  9.9762000e-001	
  1.0711670e+000	
  1.1380000e+000	
  1.1978150e+000	
  1.2533570e+000	
  1.3018800e+000	
  1.3464360e+000	
  1.3836670e+000	
  1.4080810e+000	
  1.3998410e+000	
  1.3610840e+000	
  1.2963870e+000	
  1.2146000e+000	
  1.1196900e+000	
  1.0052490e+000	
  8.6395300e-001	
  7.0098900e-001	
  5.1879900e-001	
  3.2318100e-001	
  1.2329100e-001	
 -7.9346000e-002	
 -2.8747600e-001	
 -4.9377400e-001	
 -7.0098900e-001	
 -9.0240500e-001	
 -1.0925290e+000	
 -1.2747190e+000	
 -1.4471440e+000	
 -1.6064450e+000	
 -1.7544560e+000	
 -1.8847660e+000	
 -2.0040890e+000	
 -2.1115110e+000	
 -2.2073360e+000	
 -2.2949220e+000	
 -2.3751830e+000	
 -2.4508670e+000	
 -2.5219730e+000	
 -2.5885010e+000	
 -2.6507570e+000	
 -2.7108760e+000	
 -2.7655030e+000	
 -2.8198240e+000	
 -2.8683470e+000	
 -2.9153440e+000	
 -2.9568480e+000	
 -2.9956050e+000	
 -3.0325320e+000	
 -3.0648800e+000	
 -3.0929570e+000	
 -3.1176760e+000	
 -3.1411740e+000	
 -3.1610110e+000	
 -3.1787110e+000	
 -3.1906130e+000	
 -3.1997680e+000	
 -3.2064820e+000	
 -3.2098390e+000	
 -3.2055660e+000	
 -3.2019040e+000	
 -3.1958010e+000	
 -3.1896970e+000	
 -3.1793210e+000	
 -3.1652830e+000	
 -3.1518550e+000	
 -3.1378170e+000	
 -3.1265260e+000	
 -3.1137080e+000	
 -3.0981450e+000	
 -3.0807500e+000	
 -3.0657960e+000	
 -3.0487060e+000	
 -3.0334470e+000	
 -3.0166630e+000	
 -2.9995730e+000	
 -2.9815670e+000	
 -2.9626460e+000	
 -2.9479980e+000	
 -2.9309080e+000	
 -2.9168700e+000	
 -2.9028320e+000	
 -2.8912350e+000	
 -2.8759770e+000	
 -2.8622440e+000	
 -2.8472900e+000	
 -2.8317260e+000	
 -2.8176880e+000	
 -2.8063960e+000	
 -2.7902220e+000	
 -2.7764890e+000	
 -2.7633670e+000	
 -2.7523800e+000	
 -2.7410890e+000	
 -2.7310180e+000	
 -2.7197270e+000	
 -2.7111820e+000	
 -2.6992800e+000	
 -2.6892090e+000	
 -2.6776120e+000	
 -2.6660160e+000	
 -2.6556400e+000	
 -2.6425170e+000	
 -2.6354980e+000	
 -2.6242070e+000	
 -2.6138310e+000	
 -2.6049800e+000	
 -2.5970460e+000	
 -2.5875850e+000	
 -2.5802610e+000	
 -2.5695800e+000	
 -2.5604250e+000	
 -2.5534060e+000	
 -2.5469970e+000	
 -2.5366210e+000	
 -2.5274660e+000	
 -2.5183110e+000	
 -2.5109860e+000	
 -2.5042720e+000	
 -2.4972530e+000	
 -2.4868770e+000	
 -2.4777220e+000	
 -2.4688720e+000	
 -2.4584960e+000	
 -2.4478150e+000	
 -2.4392700e+000	
 -2.4288940e+000	
 -2.4197390e+000	
 -2.4081420e+000	
 -2.3983760e+000	
 -2.3883060e+000	
 -2.3785400e+000	
 -2.3693850e+000	
 -2.3583980e+000	
 -2.3526000e+000	
 -2.3495480e+000	
 -2.3446660e+000	
 -2.3397830e+000	
 -2.3349000e+000	
 -2.3291020e+000	
 -2.3202510e+000	
 -2.3126220e+000	
 -2.3062130e+000	
 -2.2967530e+000	
 -2.2882080e+000	
 -2.2802730e+000	
 -2.2729490e+000	
 -2.2634890e+000	
 -2.2518920e+000	
 -2.2402950e+000	
 -2.2311400e+000	
 -2.2238160e+000	
 -2.2158810e+000	
 -2.2061160e+000	
 -2.1987920e+000	
 -2.1893310e+000	
 -2.1801760e+000	
 -2.1707150e+000	
 -2.1633910e+000	
 -2.1545410e+000	
 -2.1466060e+000	
 -2.1377560e+000	
 -2.1282960e+000	
 -2.1173100e+000	
 -2.1038820e+000	
 -2.0928960e+000	
 -2.0803830e+000	
 -2.0727540e+000	
 -2.0614620e+000	
 -2.0526120e+000	
 -2.0419310e+000	
 -2.0321660e+000	
 -2.0217900e+000	
 -2.0101930e+000	
 -1.9979860e+000	
 -1.9851680e+000	
 -1.9726560e+000	
 -1.9613650e+000	
 -1.9485470e+000	
 -1.9378660e+000	
 -1.9232180e+000	
 -1.9088750e+000	
 -1.8923950e+000	
 -1.8762210e+000	
 -1.8618770e+000	
 -1.8502810e+000	
 -1.8365480e+000	
 -1.8228150e+000	
 -1.8096920e+000	
 -1.7938230e+000	
 -1.7752080e+000	
 -1.7593380e+000	
 -1.7416380e+000	
 -1.7263790e+000	
 -1.7126460e+000	
 -1.6992190e+000	
 -1.6842650e+000	
 -1.6714480e+000	
 -1.6543580e+000	
 -1.6381840e+000	
 -1.6241460e+000	
 -1.6128540e+000	
 -1.5991210e+000	
 -1.5808110e+000	
 -1.5670780e+000	
 -1.5509030e+000	
 -1.5325930e+000	
 -1.5170290e+000	
 -1.4996340e+000	
 -1.4831540e+000	
 -1.4685060e+000	
 -1.4538570e+000	
 -1.4376830e+000	
 -1.4221190e+000	
 -1.4050290e+000	
 -1.3888550e+000	
 -1.3754270e+000	
 -1.3607790e+000	
 -1.3482670e+000	
 -1.3357540e+000	
 -1.3241580e+000	
 -1.3122560e+000	
 -1.2979130e+000	
 -1.2841800e+000	
 -1.2716670e+000	
 -1.2606810e+000	
 -1.2524410e+000	
 -1.2454220e+000	
 -1.2380980e+000	
 -1.2316890e+000	
 -1.2243650e+000	
 -1.2173460e+000	
 -1.2136840e+000	
 -1.2081910e+000	
 -1.2048340e+000	
 -1.2030030e+000	
 -1.2014770e+000	
 -1.2011720e+000	
 -1.1981200e+000	
 -1.1981200e+000	
 -1.1996460e+000	
 -1.2014770e+000	
 -1.2026980e+000	
 -1.2033080e+000	
 -1.2054440e+000	
 -1.2094120e+000	
 -1.2161250e+000	
 -1.2207030e+000	
 -1.2271120e+000	
 -1.2341310e+000	
 -1.2426760e+000	
 -1.2527470e+000	
 -1.2640380e+000	
 -1.2762450e+000	
 -1.2918090e+000	
 -1.3095090e+000	
 -1.3272090e+000	
 -1.3464360e+000	
 -1.3653560e+000	
 -1.3861080e+000	
 -1.4059450e+000	
 -1.4251710e+000	
 -1.4459230e+000	
 -1.4697270e+000	
 -1.4947510e+000	
 -1.5197750e+000	
 -1.5441890e+000	
 -1.5701290e+000	
 -1.5963750e+000	
 -1.6241460e+000	
 -1.6510010e+000	
 -1.6787720e+000	
 -1.7089840e+000	
 -1.7370610e+000	
 -1.7672730e+000	
 -1.7953490e+000	
 -1.8255620e+000	
 -1.8548580e+000	
 -1.8829350e+000	
 -1.9131470e+000	
 -1.9436650e+000	
 -1.9729610e+000	
 -2.0022580e+000	
 -2.0327760e+000	
 -2.0642090e+000	
 -2.0953370e+000	
 -2.1255490e+000	
 -2.1554570e+000	
 -2.1875000e+000	
 -2.2149660e+000	
 -2.2433470e+000	
 -2.2723390e+000	
 -2.3019410e+000	
 -2.3303220e+000	
 -2.3587040e+000	
 -2.3870850e+000	
 -2.4142460e+000	
 -2.4386600e+000	
 -2.4646000e+000	
 -2.4899290e+000	
 -2.5170900e+000	
 -2.5433350e+000	
 -2.5692750e+000	
 -2.5915530e+000	
 -2.6138310e+000	
 -2.6354980e+000	
 -2.6583860e+000	
 -2.6818850e+000	
 -2.7041630e+000	
 -2.7258300e+000	
 -2.7456670e+000	
 -2.7658080e+000	
 -2.7853390e+000	
 -2.8042600e+000	
 -2.8225710e+000	
 -2.8378300e+000	
 -2.8533940e+000	
 -2.8695680e+000	
 -2.8857420e+000	
 -2.9010010e+000	
 -2.9144290e+000	
 -2.9241940e+000	
 -2.9357910e+000	
 -2.9476930e+000	
 -2.9571530e+000	
 -2.9681400e+000	
 -2.9791260e+000	
 -2.9904170e+000	
 -2.9989620e+000	
 -3.0102540e+000	
 -3.0203250e+000	
 -3.0288700e+000	
 -3.0368040e+000	
 -3.0426030e+000	
 -3.0538940e+000	
 -3.0599980e+000	
 -3.0664060e+000	
 -3.0703740e+000	
 -3.0761720e+000	
 -3.0822750e+000	
 -3.0874630e+000	
 -3.0935670e+000	
 -3.0987550e+000	
 -3.1015010e+000	
 -3.1048580e+000	
 -3.1085210e+000	
 -3.1127930e+000	
 -3.1179810e+000	
 -3.1213380e+000	
 -3.1231690e+000	
 -3.1256100e+000	
 -3.1268310e+000	
 -3.1274410e+000	
 -3.1307980e+000	
 -3.1314090e+000	
 -3.1323240e+000	
 -3.1338500e+000	
 -3.1350710e+000	
 -3.1344600e+000	
 -3.1335450e+000	
 -3.1347660e+000	
 -3.1350710e+000	
 -3.1350710e+000	
 -3.1350710e+000	
 -3.1335450e+000	
 -3.1335450e+000	
 -3.1289670e+000	
 -3.1289670e+000	
 -3.1304930e+000	
 -3.1295780e+000	
 -3.1277470e+000	
 -3.1253050e+000	
 -3.1240840e+000	
 -3.1231690e+000	
 -3.1198120e+000	
 -3.1164550e+000	
 -3.1118770e+000	
 -3.1079100e+000	
 -3.1051640e+000	
 -3.1015010e+000	
 -3.0978390e+000	
 -3.0950930e+000	
 -3.0935670e+000	
 -3.0917360e+000	
 -3.0899050e+000	
 -3.0874630e+000	
 -3.0834960e+000	
 -3.0822750e+000	
 -3.0789180e+000	
 -3.0761720e+000	
 -3.0740360e+000	
 -3.0722050e+000	
 -3.0697630e+000	
 -3.0694580e+000	
 -3.0676270e+000	
 -3.0679320e+000	
 -3.0661010e+000	
 -3.0633540e+000	
 -3.0581670e+000	
 -3.0538940e+000	
 -3.0517580e+000	
 -3.0499270e+000	
 -3.0508420e+000	
 -3.0477910e+000	
 -3.0468750e+000	
 -3.0444340e+000	
 -3.0426030e+000	
 -3.0389400e+000	
 -3.0346680e+000	
 -3.0328370e+000	
 -3.0294800e+000	
 -3.0264280e+000	
 -3.0267330e+000	
 -3.0236820e+000	
 -3.0206300e+000	
 -3.0187990e+000	
 -3.0160520e+000	
 -3.0151370e+000	
 -3.0136110e+000	
 -3.0130000e+000	
 -3.0105590e+000	
 -3.0068970e+000	
 -3.0029300e+000	
 -2.9995730e+000	
 -2.9986570e+000	
 -2.9974370e+000	
 -2.9946900e+000	
 -2.9959110e+000	
 -2.9943850e+000	
 -2.9922490e+000	
 -2.9867550e+000	
 -2.9824830e+000	
 -2.9797360e+000	
 -2.9772950e+000	
 -2.9772950e+000	
 -2.9776000e+000	
 -2.9772950e+000	
 -2.9748540e+000	
 -2.9745480e+000	
 -2.9739380e+000	
 -2.9751590e+000	
 -2.9751590e+000	
 -2.9751590e+000	
 -2.9766850e+000	
 -2.9782100e+000	
 -2.9785160e+000	
 -2.9776000e+000	
 -2.9763790e+000	
 -2.9733280e+000	
 -2.9733280e+000	
 -2.9730220e+000	
 -2.9730220e+000	
 -2.9727170e+000	
 -2.9733280e+000	
 -2.9736330e+000	
 -2.9736330e+000	
 -2.9721070e+000	
 -2.9724120e+000	
 -2.9718020e+000	
 -2.9739380e+000	
 -2.9748540e+000	
 -2.9739380e+000	
 -2.9754640e+000	
 -2.9745480e+000	
 -2.9760740e+000	
 -2.9766850e+000	
 -2.9779050e+000	
 -2.9785160e+000	
 -2.9803470e+000	
 -2.9846190e+000	
 -2.9852290e+000	
 -2.9833980e+000	
 -2.9843140e+000	
 -2.9827880e+000	
 -2.9833980e+000	
 -2.9843140e+000	
 -2.9824830e+000	
 -2.9846190e+000	
 -2.9840090e+000	
 -2.9852290e+000	
 -2.9879760e+000	
 -2.9876710e+000	
 -2.9873660e+000	
 -2.9858400e+000	
 -2.9867550e+000	
 -2.9849240e+000	
 -2.9855350e+000	
 -2.9852290e+000	
 -2.9840090e+000	
 -2.9846190e+000	
 -2.9852290e+000	
 -2.9843140e+000	
 -2.9830930e+000	
 -2.9846190e+000	
 -2.9821780e+000	
 -2.9861450e+000	
 -2.9867550e+000	
 -2.9876710e+000	
 -2.9882810e+000	
 -2.9879760e+000	
 -2.9873660e+000	
 -2.9873660e+000	
 -2.9879760e+000	
 -2.9876710e+000	
 -2.9885860e+000	
 -2.9895020e+000	
 -2.9882810e+000	
 -2.9876710e+000	
 -2.9885860e+000	
 -2.9879760e+000	
 -2.9867550e+000	
 -2.9858400e+000	
 -2.9846190e+000	
 -2.9849240e+000	
 -2.9833980e+000	
 -2.9833980e+000	
 -2.9830930e+000	
 -2.9821780e+000	
 -2.9815670e+000	
 -2.9803470e+000	
 -2.9785160e+000	
 -2.9772950e+000	
 -2.9772950e+000	
 -2.9763790e+000	
 -2.9766850e+000	
 -2.9782100e+000	
 -2.9757690e+000	
 -2.9754640e+000	
 -2.9769900e+000	
 -2.9766850e+000	
 -2.9779050e+000	
 -2.9788210e+000	
 -2.9754640e+000	
 -2.9727170e+000	
 -2.9714970e+000	
 -2.9705810e+000	
 -2.9693600e+000	
 -2.9653930e+000	
 -2.9632570e+000	
 -2.9605100e+000	
 -2.9550170e+000	
 -2.9522710e+000	
 -2.9470830e+000	
 -2.9437260e+000	
 -2.9388430e+000	
 -2.9357910e+000	
 -2.9336550e+000	
 -2.9296880e+000	
 -2.9257200e+000	
 -2.9229740e+000	
 -2.9214480e+000	
 -2.9205320e+000	
 -2.9208370e+000	
 -2.9202270e+000	
 -2.9196170e+000	
 -2.9177860e+000	
 -2.9162600e+000	
 -2.9165650e+000	
 -2.9180910e+000	
 -2.9150390e+000	
 -2.9122920e+000	
 -2.9129030e+000	
 -2.9116820e+000	
 -2.9110720e+000	
 -2.9110720e+000	
 -2.9116820e+000	
 -2.9135130e+000	
 -2.9144290e+000	
 -2.9162600e+000	
 -2.9190060e+000	
 -2.9196170e+000	
 -2.9208370e+000	
 -2.9205320e+000	
 -2.9208370e+000	
 -2.9208370e+000	
 -2.9199220e+000	
 -2.9199220e+000	
 -2.9196170e+000	
 -2.9183960e+000	
 -2.9180910e+000	
 -2.9165650e+000	
 -2.9159550e+000	
 -2.9132080e+000	
 -2.9107670e+000	
 -2.9092410e+000	
 -2.9086300e+000	
 -2.9052730e+000	
 -2.9040530e+000	
 -2.9019170e+000	
 -2.8994750e+000	
 -2.8973390e+000	
 -2.8955080e+000	
 -2.8933720e+000	
 -2.8912350e+000	
 -2.8890990e+000	
 -2.8872680e+000	
 -2.8881840e+000	
 -2.8869630e+000	
 -2.8829960e+000	
 -2.8796390e+000	
 -2.8771970e+000	
 -2.8756710e+000	
 -2.8747560e+000	
 -2.8729250e+000	
 -2.8713990e+000	
 -2.8720090e+000	
 -2.8713990e+000	
 -2.8695680e+000	
 -2.8701780e+000	
 -2.8677370e+000	
 -2.8652950e+000	
 -2.8637700e+000	
 -2.8631590e+000	
 -2.8588870e+000	
 -2.8540040e+000	
 -2.8472900e+000	
 -2.8433230e+000	
 -2.8350830e+000	
 -2.8295900e+000	
 -2.8207400e+000	
 -2.8109740e+000	
 -2.7960210e+000	
 -2.7825930e+000	
 -2.7713010e+000	
 -2.7572630e+000	
 -2.7438350e+000	
 -2.7313230e+000	
 -2.7185060e+000	
 -2.7053830e+000	
 -2.6934810e+000	
 -2.6831050e+000	
 -2.6708980e+000	
 -2.6580810e+000	
 -2.6467900e+000	
 -2.6376340e+000	
 -2.6281740e+000	
 -2.6184080e+000	
 -2.6101680e+000	
 -2.6022340e+000	
 -2.5942990e+000	
 -2.5845340e+000	
 -2.5729370e+000	
 -2.5640870e+000	
 -2.5558470e+000	
 -2.5466920e+000	
 -2.5375370e+000	
 -2.5268550e+000	
 -2.5170900e+000	
 -2.5057980e+000	
 -2.4945070e+000	
 -2.4819950e+000	
 -2.4707030e+000	
 -2.4557500e+000	
 -2.4420170e+000	
 -2.4304200e+000	
 -2.4172970e+000	
 -2.4069210e+000	
 -2.3959350e+000	
 -2.3880000e+000	
 -2.3782350e+000	
 -2.3681640e+000	
 -2.3590090e+000	
 -2.3535160e+000	
 -2.3452760e+000	
 -2.3382570e+000	
 -2.3318480e+000	
 -2.3275760e+000	
 -2.3257450e+000	
 -2.3263550e+000	
 -2.3278810e+000	
 -2.3278810e+000	
 -2.3309330e+000	
 -2.3336790e+000	
 -2.3385620e+000	
 -2.3446660e+000	
 -2.3513790e+000	
 -2.3602290e+000	
 -2.3672490e+000	
 -2.3742680e+000	
 -2.3809810e+000	
 -2.3855590e+000	
 -2.3892210e+000	
 -2.3941040e+000	
 -2.3977660e+000	
 -2.4032590e+000	
 -2.4096680e+000	
 -2.4139400e+000	
 -2.4197390e+000	
 -2.4221800e+000	
 -2.4246220e+000	
 -2.4258420e+000	
 -2.4288940e+000	
 -2.4319460e+000	
 -2.4368290e+000	
 -2.4404910e+000	
 -2.4468990e+000	
 -2.4514770e+000	
 -2.4575810e+000	
 -2.4612430e+000	
 -2.4679570e+000	
 -2.4758910e+000	
 -2.4850460e+000	
 -2.4963380e+000	
 -2.5070190e+000	
 -2.5183110e+000	
 -2.5302120e+000	
 -2.5384520e+000	
 -2.5497440e+000	
 -2.5616460e+000	
 -2.5741580e+000	
 -2.5833130e+000	
 -2.5958250e+000	
 -2.6080320e+000	
 -2.6214600e+000	
 -2.6342770e+000	
 -2.6489260e+000	
 -2.6605220e+000	
 -2.6724240e+000	
 -2.6858520e+000	
 -2.6986690e+000	
 -2.7105710e+000	
 -2.7221680e+000	
 -2.7334590e+000	
 -2.7453610e+000	
 -2.7539060e+000	
 -2.7621460e+000	
 -2.7716060e+000	
 -2.7801510e+000	
 -2.7896120e+000	
 -2.7972410e+000	
 -2.8057860e+000	
 -2.8128050e+000	
 -2.8182980e+000	
 -2.8234860e+000	
 -2.8298950e+000	
 -2.8341670e+000	
 -2.8399660e+000	
 -2.8457640e+000	
 -2.8503420e+000	
 -2.8555300e+000	
 -2.8594970e+000	
 -2.8607180e+000	
 -2.8634640e+000	
 -2.8665160e+000	
 -2.8695680e+000	
 -2.8717040e+000	
 -2.8753660e+000	
 -2.8765870e+000	
 -2.8808590e+000	
 -2.8833010e+000	
 -2.8851320e+000	
 -2.8878780e+000	
 -2.8906250e+000	
 -2.8906250e+000	
 -2.8924560e+000	
 -2.8942870e+000	
 -2.8964230e+000	
 -2.8973390e+000	
 -2.8991700e+000	
 -2.8997800e+000	
 -2.9000850e+000	
 -2.9013060e+000	
 -2.9006960e+000	
 -2.8997800e+000	
 -2.8991700e+000	
 -2.8961180e+000	
 -2.8945920e+000	
 -2.8933720e+000	
 -2.8930660e+000	
 -2.8918460e+000	
 -2.8903200e+000	
 -2.8906250e+000	
 -2.8884890e+000	
 -2.8894040e+000	
 -2.8890990e+000	
 -2.8881840e+000	
 -2.8887940e+000	
 -2.8900150e+000	
 -2.8909300e+000	
 -2.8915410e+000	
 -2.8921510e+000	
 -2.8924560e+000	
 -2.8964230e+000	
 -2.8970340e+000	
 -2.8994750e+000	
 -2.9034420e+000	
 -2.9071040e+000	
 -2.9113770e+000	
 -2.9162600e+000	
 -2.9229740e+000	
 -2.9299930e+000	
 -2.9388430e+000	
 -2.9486080e+000	
 -2.9577640e+000	
 -2.9635620e+000	
 -2.9666140e+000	
 -2.9663090e+000	
 -2.9568480e+000	
 -2.9415890e+000	
 -2.9193120e+000	
 -2.8887940e+000	
 -2.8509520e+000	
 -2.8067020e+000	
 -2.7508540e+000	
 -2.6870730e+000	
 -2.6083370e+000	
 -2.5149540e+000	
 -2.4069210e+000	
 -2.2918700e+000	
 -2.1630860e+000	
 -2.0220950e+000	
 -1.8643190e+000	
 -1.6946410e+000	
 -1.5097050e+000	
 -1.3049320e+000	
 -1.0818480e+000	
 -8.4716800e-001	
 -5.9875500e-001	
 -3.4973100e-001	
 -1.1352500e-001	
  1.0070800e-001	
  2.9296900e-001	
  4.6356200e-001	
  6.1035200e-001	
  7.3822000e-001	
  8.4869400e-001	
  9.4482400e-001	
  1.0305790e+000	
  1.1096190e+000	
  1.1807250e+000	
  1.2445070e+000	
  1.3015750e+000	
  1.3534550e+000	
  1.4001460e+000	
  1.4434810e+000	
  1.4788820e+000	
  1.5081790e+000	
  1.5228270e+000	
  1.5048220e+000	
  1.4523320e+000	
  1.3748170e+000	
  1.2829590e+000	
  1.1694340e+000	
  1.0314940e+000	
  8.6944600e-001	
  6.9152800e-001	
  4.9743700e-001	
  2.9846200e-001	
  8.9417000e-002	
 -1.2817400e-001	
 -3.5003700e-001	
 -5.6915300e-001	
 -7.8338600e-001	
 -9.8358200e-001	
 -1.1746220e+000	
 -1.3549800e+000	
 -1.5206910e+000	
 -1.6690060e+000	
 -1.8011470e+000	
 -1.9174190e+000	
 -2.0208740e+000	
 -2.1148680e+000	
 -2.2018430e+000	
 -2.2811890e+000	
 -2.3577880e+000	
 -2.4276730e+000	
 -2.4972530e+000	
 -2.5607300e+000	
 -2.6217650e+000	
 -2.6766970e+000	
 -2.7276610e+000	
 -2.7777100e+000	
 -2.8237920e+000	
 -2.8634640e+000	
 -2.8976440e+000	
 -2.9318240e+000	
 -2.9620360e+000	
 -2.9888920e+000	
 -3.0123900e+000	
 -3.0325320e+000	
 -3.0477910e+000	
 -3.0596920e+000	
 -3.0685420e+000	
 -3.0752560e+000	
 -3.0792240e+000	
 -3.0795290e+000	
 -3.0776980e+000	
 -3.0737300e+000	
 -3.0688480e+000	
 -3.0590820e+000	
 -3.0487060e+000	
 -3.0364990e+000	
 -3.0239870e+000	
 -3.0123900e+000	
 -3.0007930e+000	
 -2.9870610e+000	
 -2.9730220e+000	
 -2.9592900e+000	
 -2.9437260e+000	
 -2.9306030e+000	
 -2.9147340e+000	
 -2.8997800e+000	
 -2.8845210e+000	
 -2.8717040e+000	
 -2.8570560e+000	
 -2.8454590e+000	
 -2.8308110e+000	
 -2.8170780e+000	
 -2.8060910e+000	
 -2.7935790e+000	
 -2.7819820e+000	
 -2.7725220e+000	
 -2.7618410e+000	
 -2.7532960e+000	
 -2.7423100e+000	
 -2.7319340e+000	
 -2.7218630e+000	
 -2.7130130e+000	
 -2.7023320e+000	
 -2.6922610e+000	
 -2.6831050e+000	
 -2.6736450e+000	
 -2.6626590e+000	
 -2.6528930e+000	
 -2.6446530e+000	
 -2.6336670e+000	
 -2.6242070e+000	
 -2.6141360e+000	
 -2.6068120e+000	
 -2.5982670e+000	
 -2.5869750e+000	
 -2.5750730e+000	
 -2.5628660e+000	
 -2.5494380e+000	
 -2.5366210e+000	
 -2.5238040e+000	
 -2.5131230e+000	
 -2.5045780e+000	
 -2.4945070e+000	
 -2.4847410e+000	
 -2.4792480e+000	
 -2.4694820e+000	
 -2.4615480e+000	
 -2.4569700e+000	
 -2.4517820e+000	
 -2.4462890e+000	
 -2.4401860e+000	
 -2.4331670e+000	
 -2.4267580e+000	
 -2.4191280e+000	
 -2.4111940e+000	
 -2.4008180e+000	
 -2.3907470e+000	
 -2.3785400e+000	
 -2.3687740e+000	
 -2.3590090e+000	
 -2.3471070e+000	
 -2.3367310e+000	
 -2.3248290e+000	
 -2.3120120e+000	
 -2.3004150e+000	
 -2.2885130e+000	
 -2.2790530e+000	
 -2.2702030e+000	
 -2.2598270e+000	
 -2.2500610e+000	
 -2.2396850e+000	
 -2.2317500e+000	
 -2.2213750e+000	
 -2.2113040e+000	
 -2.2015380e+000	
 -2.1929930e+000	
 -2.1835330e+000	
 -2.1734620e+000	
 -2.1640010e+000	
 -2.1536250e+000	
 -2.1435550e+000	
 -2.1316530e+000	
 -2.1206670e+000	
 -2.1109010e+000	
 -2.1014400e+000	
 -2.0925900e+000	
 -2.0825200e+000	
 -2.0715330e+000	
 -2.0605470e+000	
 -2.0486450e+000	
 -2.0407100e+000	
 -2.0333860e+000	
 -2.0260620e+000	
 -2.0187380e+000	
 -2.0114140e+000	
 -2.0037840e+000	
 -1.9955440e+000	
 -1.9833370e+000	
 -1.9717410e+000	
 -1.9577030e+000	
 -1.9448850e+000	
 -1.9293210e+000	
 -1.9161990e+000	
 -1.8978880e+000	
 -1.8811040e+000	
 -1.8658450e+000	
 -1.8502810e+000	
 -1.8359380e+000	
 -1.8212890e+000	
 -1.8054200e+000	
 -1.7895510e+000	
 -1.7721560e+000	
 -1.7550660e+000	
 -1.7388920e+000	
 -1.7233280e+000	
 -1.7095950e+000	
 -1.6961670e+000	
 -1.6830440e+000	
 -1.6696170e+000	
 -1.6525270e+000	
 -1.6360470e+000	
 -1.6189580e+000	
 -1.6021730e+000	
 -1.5863040e+000	
 -1.5667720e+000	
 -1.5530400e+000	
 -1.5365600e+000	
 -1.5209960e+000	
 -1.5045170e+000	
 -1.4892580e+000	
 -1.4743040e+000	
 -1.4581300e+000	
 -1.4419560e+000	
 -1.4254760e+000	
 -1.4068600e+000	
 -1.3894650e+000	
 -1.3702390e+000	
 -1.3510130e+000	
 -1.3381960e+000	
 -1.3229370e+000	
 -1.3061520e+000	
 -1.2881470e+000	
 -1.2722780e+000	
 -1.2561040e+000	
 -1.2414550e+000	
 -1.2258910e+000	
 -1.2127690e+000	
 -1.1993410e+000	
 -1.1853030e+000	
 -1.1734010e+000	
 -1.1636350e+000	
 -1.1544800e+000	
 -1.1450200e+000	
 -1.1367800e+000	
 -1.1267090e+000	
 -1.1196900e+000	
 -1.1145020e+000	
 -1.1099240e+000	
 -1.1019900e+000	
 -1.0961910e+000	
 -1.0919190e+000	
 -1.0894780e+000	
 -1.0885620e+000	
 -1.0849000e+000	
 -1.0827640e+000	
 -1.0775760e+000	
 -1.0736080e+000	
 -1.0641480e+000	
 -1.0583500e+000	
 -1.0568240e+000	
 -1.0540770e+000	
 -1.0595700e+000	
 -1.0617070e+000	
 -1.0656740e+000	
 -1.0687260e+000	
 -1.0739140e+000	
 -1.0815430e+000	
 -1.0946660e+000	
 -1.1062620e+000	
 -1.1166380e+000	
 -1.1279300e+000	
 -1.1413570e+000	
 -1.1523440e+000	
 -1.1669920e+000	
 -1.1819460e+000	
 -1.1993410e+000	
 -1.2149050e+000	
 -1.2332150e+000	
 -1.2530520e+000	
 -1.2734990e+000	
 -1.2951660e+000	
 -1.3174440e+000	
 -1.3418580e+000	
 -1.3656620e+000	
 -1.3925170e+000	
 -1.4184570e+000	
 -1.4434810e+000	
 -1.4697270e+000	
 -1.4965820e+000	
 -1.5234380e+000	
 -1.5536500e+000	
 -1.5835570e+000	
 -1.6091920e+000	
 -1.6403200e+000	
 -1.6702270e+000	
 -1.7007450e+000	
 -1.7321780e+000	
 -1.7608640e+000	
 -1.7935180e+000	
 -1.8252560e+000	
 -1.8585210e+000	
 -1.8896480e+000	
 -1.9213870e+000	
 -1.9515990e+000	
 -1.9836430e+000	
 -2.0162960e+000	
 -2.0480350e+000	
 -2.0797730e+000	
 -2.1112060e+000	
 -2.1429440e+000	
 -2.1749880e+000	
 -2.2076420e+000	
 -2.2381590e+000	
 -2.2692870e+000	
 -2.2998050e+000	
 -2.3303220e+000	
 -2.3593140e+000	
 -2.3852540e+000	
 -2.4139400e+000	
 -2.4417110e+000	
 -2.4697880e+000	
 -2.4960330e+000	
 -2.5231930e+000	
 -2.5494380e+000	
 -2.5753780e+000	
 -2.6004030e+000	
 -2.6235960e+000	
 -2.6452640e+000	
 -2.6675420e+000	
 -2.6885990e+000	
 -2.7093510e+000	
 -2.7294920e+000	
 -2.7487180e+000	
 -2.7685550e+000	
 -2.7871700e+000	
 -2.8048710e+000	
 -2.8228760e+000	
 -2.8408810e+000	
 -2.8570560e+000	
 -2.8726200e+000	
 -2.8887940e+000	
 -2.9028320e+000	
 -2.9156490e+000	
 -2.9299930e+000	
 -2.9446410e+000	
 -2.9586790e+000	
 -2.9724120e+000	
 -2.9867550e+000	
 -2.9992680e+000	
 -3.0133060e+000	
 -3.0233760e+000	
 -3.0325320e+000	
 -3.0398560e+000	
 -3.0490110e+000	
 -3.0554200e+000	
 -3.0624390e+000	
 -3.0691530e+000	
 -3.0743410e+000	
 -3.0807500e+000	
 -3.0859380e+000	
 -3.0920410e+000	
 -3.0972290e+000	
 -3.1018070e+000	
 -3.1045530e+000	
 -3.1063840e+000	
 -3.1118770e+000	
 -3.1176760e+000	
 -3.1246950e+000	
 -3.1292720e+000	
 -3.1332400e+000	
 -3.1341550e+000	
 -3.1350710e+000	
 -3.1362920e+000	
 -3.1350710e+000	
 -3.1335450e+000	
 -3.1314090e+000	
 -3.1304930e+000	
 -3.1301880e+000	
 -3.1301880e+000	
 -3.1283570e+000	
 -3.1271360e+000	
 -3.1246950e+000	
 -3.1246950e+000	
 -3.1207280e+000	
 -3.1192020e+000	
 -3.1182860e+000	
 -3.1134030e+000	
 -3.1106570e+000	
 -3.1091310e+000	
 -3.1073000e+000	
 -3.1063840e+000	
 -3.1051640e+000	
 -3.1048580e+000	
 -3.1030270e+000	
 -3.1021120e+000	
 -3.1008910e+000	
 -3.0999760e+000	
 -3.0981450e+000	
 -3.0972290e+000	
 -3.0963130e+000	
 -3.0935670e+000	
 -3.0917360e+000	
 -3.0923460e+000	
 -3.0914310e+000	
 -3.0908200e+000	
 -3.0911250e+000	
 -3.0886840e+000	
 -3.0886840e+000	
 -3.0880740e+000	
 -3.0911250e+000	
 -3.0902100e+000	
 -3.0917360e+000	
 -3.0911250e+000	
 -3.0896000e+000	
 -3.0877690e+000	
 -3.0850220e+000	
 -3.0813600e+000	
 -3.0767820e+000	
 -3.0728150e+000	
 -3.0703740e+000	
 -3.0676270e+000	
 -3.0664060e+000	
 -3.0636600e+000	
 -3.0630490e+000	
 -3.0609130e+000	
 -3.0584720e+000	
 -3.0526730e+000	
 -3.0480960e+000	
 -3.0453490e+000	
 -3.0422970e+000	
 -3.0374150e+000	
 -3.0340580e+000	
 -3.0307010e+000	
 -3.0288700e+000	
 -3.0303960e+000	
 -3.0288700e+000	
 -3.0273440e+000	
 -3.0261230e+000	
 -3.0258180e+000	
 -3.0249020e+000	
 -3.0227660e+000	
 -3.0215450e+000	
 -3.0203250e+000	
 -3.0191040e+000	
 -3.0209350e+000	
 -3.0194090e+000	
 -3.0206300e+000	
 -3.0200200e+000	
 -3.0194090e+000	
 -3.0187990e+000	
 -3.0194090e+000	
 -3.0191040e+000	
 -3.0166630e+000	
 -3.0172730e+000	
 -3.0136110e+000	
 -3.0117800e+000	
 -3.0123900e+000	
 -3.0130000e+000	
 -3.0117800e+000	
 -3.0117800e+000	
 -3.0102540e+000	
 -3.0117800e+000	
 -3.0102540e+000	
 -3.0096440e+000	
 -3.0099490e+000	
 -3.0102540e+000	
 -3.0099490e+000	
 -3.0117800e+000	
 -3.0148320e+000	
 -3.0169680e+000	
 -3.0209350e+000	
 -3.0239870e+000	
 -3.0261230e+000	
 -3.0276490e+000	
 -3.0300900e+000	
 -3.0334470e+000	
 -3.0352780e+000	
 -3.0358890e+000	
 -3.0383300e+000	
 -3.0386350e+000	
 -3.0404660e+000	
 -3.0426030e+000	
 -3.0426030e+000	
 -3.0441280e+000	
 -3.0438230e+000	
 -3.0456540e+000	
 -3.0456540e+000	
 -3.0450440e+000	
 -3.0453490e+000	
 -3.0429080e+000	
 -3.0401610e+000	
 -3.0395510e+000	
 -3.0401610e+000	
 -3.0404660e+000	
 -3.0368040e+000	
 -3.0358890e+000	
 -3.0355830e+000	
 -3.0364990e+000	
 -3.0374150e+000	
 -3.0361940e+000	
 -3.0352780e+000	
 -3.0349730e+000	
 -3.0349730e+000	
 -3.0352780e+000	
 -3.0374150e+000	
 -3.0380250e+000	
 -3.0386350e+000	
 -3.0392460e+000	
 -3.0377200e+000	
 -3.0374150e+000	
 -3.0383300e+000	
 -3.0380250e+000	
 -3.0392460e+000	
 -3.0404660e+000	
 -3.0398560e+000	
 -3.0380250e+000	
 -3.0380250e+000	
 -3.0383300e+000	
 -3.0368040e+000	
 -3.0368040e+000	
 -3.0368040e+000	
 -3.0380250e+000	
 -3.0371090e+000	
 -3.0407710e+000	
 -3.0416870e+000	
 -3.0416870e+000	
 -3.0429080e+000	
 -3.0444340e+000	
 -3.0459590e+000	
 -3.0462650e+000	
 -3.0493160e+000	
 -3.0505370e+000	
 -3.0520630e+000	
 -3.0545040e+000	
 -3.0572510e+000	
 -3.0587770e+000	
 -3.0606080e+000	
 -3.0606080e+000	
 -3.0609130e+000	
 -3.0624390e+000	
 -3.0615230e+000	
 -3.0606080e+000	
 -3.0609130e+000	
 -3.0615230e+000	
 -3.0603030e+000	
 -3.0603030e+000	
 -3.0603030e+000	
 -3.0606080e+000	
 -3.0609130e+000	
 -3.0633540e+000	
 -3.0636600e+000	
 -3.0645750e+000	
 -3.0679320e+000	
 -3.0697630e+000	
 -3.0691530e+000	
 -3.0682370e+000	
 -3.0688480e+000	
 -3.0688480e+000	
 -3.0682370e+000	
 -3.0667110e+000	
 -3.0664060e+000	
 -3.0661010e+000	
 -3.0667110e+000	
 -3.0673220e+000	
 -3.0670170e+000	
 -3.0673220e+000	
 -3.0654910e+000	
 -3.0648800e+000	
 -3.0645750e+000	
 -3.0648800e+000	
 -3.0639650e+000	
 -3.0633540e+000	
 -3.0636600e+000	
 -3.0633540e+000	
 -3.0627440e+000	
 -3.0630490e+000	
 -3.0621340e+000	
 -3.0612180e+000	
 -3.0596920e+000	
 -3.0584720e+000	
 -3.0572510e+000	
 -3.0566410e+000	
 -3.0581670e+000	
 -3.0560300e+000	
 -3.0526730e+000	
 -3.0554200e+000	
 -3.0566410e+000	
 -3.0581670e+000	
 -3.0566410e+000	
 -3.0563350e+000	
 -3.0541990e+000	
 -3.0532840e+000	
 -3.0493160e+000	
 -3.0456540e+000	
 -3.0429080e+000	
 -3.0386350e+000	
 -3.0358890e+000	
 -3.0346680e+000	
 -3.0331420e+000	
 -3.0328370e+000	
 -3.0297850e+000	
 -3.0264280e+000	
 -3.0242920e+000	
 -3.0221560e+000	
 -3.0191040e+000	
 -3.0172730e+000	
 -3.0136110e+000	
 -3.0096440e+000	
 -3.0065920e+000	
 -3.0050660e+000	
 -3.0029300e+000	
 -3.0010990e+000	
 -2.9986570e+000	
 -2.9928590e+000	
 -2.9940800e+000	
 -2.9943850e+000	
 -2.9898070e+000	
 -2.9867550e+000	
 -2.9843140e+000	
 -2.9827880e+000	
 -2.9824830e+000	
 -2.9797360e+000	
 -2.9782100e+000	
 -2.9763790e+000	
 -2.9772950e+000	
 -2.9763790e+000	
 -2.9742430e+000	
 -2.9730220e+000	
 -2.9724120e+000	
 -2.9718020e+000	
 -2.9714970e+000	
 -2.9699710e+000	
 -2.9684450e+000	
 -2.9699710e+000	
 -2.9727170e+000	
 -2.9721070e+000	
 -2.9718020e+000	
 -2.9696660e+000	
 -2.9675290e+000	
 -2.9666140e+000	
 -2.9650880e+000	
 -2.9632570e+000	
 -2.9620360e+000	
 -2.9586790e+000	
 -2.9565430e+000	
 -2.9602050e+000	
 -2.9617310e+000	
 -2.9608150e+000	
 -2.9608150e+000	
 -2.9605100e+000	
 -2.9617310e+000	
 -2.9608150e+000	
 -2.9611210e+000	
 -2.9620360e+000	
 -2.9617310e+000	
 -2.9614260e+000	
 -2.9623410e+000	
 -2.9620360e+000	
 -2.9602050e+000	
 -2.9583740e+000	
 -2.9525760e+000	
 -2.9461670e+000	
 -2.9382320e+000	
 -2.9287720e+000	
 -2.9202270e+000	
 -2.9132080e+000	
 -2.9043580e+000	
 -2.8936770e+000	
 -2.8796390e+000	
 -2.8646850e+000	
 -2.8521730e+000	
 -2.8378300e+000	
 -2.8240970e+000	
 -2.8085330e+000	
 -2.7960210e+000	
 -2.7816770e+000	
 -2.7694700e+000	
 -2.7569580e+000	
 -2.7465820e+000	
 -2.7380370e+000	
 -2.7304080e+000	
 -2.7191160e+000	
 -2.7090450e+000	
 -2.7005000e+000	
 -2.6925660e+000	
 -2.6840210e+000	
 -2.6754760e+000	
 -2.6672360e+000	
 -2.6580810e+000	
 -2.6501460e+000	
 -2.6403810e+000	
 -2.6318360e+000	
 -2.6217650e+000	
 -2.6123050e+000	
 -2.6037600e+000	
 -2.5933840e+000	
 -2.5820920e+000	
 -2.5717160e+000	
 -2.5625610e+000	
 -2.5506590e+000	
 -2.5411990e+000	
 -2.5311280e+000	
 -2.5186160e+000	
 -2.5088500e+000	
 -2.4972530e+000	
 -2.4908450e+000	
 -2.4807740e+000	
 -2.4716190e+000	
 -2.4649050e+000	
 -2.4560550e+000	
 -2.4490360e+000	
 -2.4438480e+000	
 -2.4404910e+000	
 -2.4365230e+000	
 -2.4343870e+000	
 -2.4346920e+000	
 -2.4349980e+000	
 -2.4380490e+000	
 -2.4423220e+000	
 -2.4468990e+000	
 -2.4514770e+000	
 -2.4566650e+000	
 -2.4636840e+000	
 -2.4722290e+000	
 -2.4816890e+000	
 -2.4893190e+000	
 -2.4975590e+000	
 -2.5018310e+000	
 -2.5094600e+000	
 -2.5170900e+000	
 -2.5213620e+000	
 -2.5280760e+000	
 -2.5329590e+000	
 -2.5418090e+000	
 -2.5473020e+000	
 -2.5543210e+000	
 -2.5610350e+000	
 -2.5665280e+000	
 -2.5698850e+000	
 -2.5744630e+000	
 -2.5802610e+000	
 -2.5839230e+000	
 -2.5894170e+000	
 -2.5955200e+000	
 -2.6013180e+000	
 -2.6074220e+000	
 -2.6110840e+000	
 -2.6187130e+000	
 -2.6257320e+000	
 -2.6351930e+000	
 -2.6446530e+000	
 -2.6519780e+000	
 -2.6596070e+000	
 -2.6672360e+000	
 -2.6776120e+000	
 -2.6889040e+000	
 -2.6995850e+000	
 -2.7102660e+000	
 -2.7215580e+000	
 -2.7349850e+000	
 -2.7478030e+000	
 -2.7615360e+000	
 -2.7764890e+000	
 -2.7886960e+000	
 -2.8009030e+000	
 -2.8115840e+000	
 -2.8222660e+000	
 -2.8350830e+000	
 -2.8448490e+000	
 -2.8549190e+000	
 -2.8643800e+000	
 -2.8729250e+000	
 -2.8817750e+000	
 -2.8903200e+000	
 -2.8970340e+000	
 -2.9025270e+000	
 -2.9086300e+000	
 -2.9129030e+000	
 -2.9162600e+000	
 -2.9220580e+000	
 -2.9263310e+000	
 -2.9318240e+000	
 -2.9364010e+000	
 -2.9406740e+000	
 -2.9431150e+000	
 -2.9446410e+000	
 -2.9443360e+000	
 -2.9473880e+000	
 -2.9492190e+000	
 -2.9504390e+000	
 -2.9507450e+000	
 -2.9504390e+000	
 -2.9501340e+000	
 -2.9495240e+000	
 -2.9495240e+000	
 -2.9473880e+000	
 -2.9449460e+000	
 -2.9418950e+000	
 -2.9422000e+000	
 -2.9397580e+000	
 -2.9406740e+000	
 -2.9397580e+000	
 -2.9400630e+000	
 -2.9394530e+000	
 -2.9412840e+000	
 -2.9446410e+000	
 -2.9464720e+000	
 -2.9483030e+000	
 -2.9483030e+000	
 -2.9492190e+000	
 -2.9504390e+000	
 -2.9516600e+000	
 -2.9531860e+000	
 -2.9547120e+000	
 -2.9568480e+000	
 -2.9577640e+000	
 -2.9583740e+000	
 -2.9605100e+000	
 -2.9577640e+000	
 -2.9571530e+000	
 -2.9580690e+000	
 -2.9583740e+000	
 -2.9617310e+000	
 -2.9638670e+000	
 -2.9653930e+000	
 -2.9650880e+000	
 -2.9647830e+000	
 -2.9666140e+000	
 -2.9724120e+000	
 -2.9769900e+000	
 -2.9809570e+000	
 -2.9830930e+000	
 -2.9870610e+000	
 -2.9907230e+000	
 -2.9983520e+000	
 -3.0050660e+000	
 -3.0120850e+000	
 -3.0242920e+000	
 -3.0303960e+000	
 -3.0346680e+000	
 -3.0340580e+000	
 -3.0300900e+000	
 -3.0166630e+000	
 -2.9965210e+000	
 -2.9693600e+000	
 -2.9348750e+000	
 -2.8942870e+000	
 -2.8460690e+000	
 -2.7908330e+000	
 -2.7261350e+000	
 -2.6449580e+000	
 -2.5497440e+000	
 -2.4432370e+000	
 -2.3205570e+000	
 -2.1926880e+000	
 -2.0501710e+000	
 -1.8878170e+000	
 -1.7135620e+000	
 -1.5179440e+000	
 -1.2969970e+000	
 -1.0641480e+000	
 -8.2855200e-001	
 -5.7800300e-001	
 -3.3538800e-001	
 -1.0650600e-001	
  9.7046000e-002	
  2.7954100e-001	
  4.4006300e-001	
  5.7617200e-001	
  6.9946300e-001	
  8.0688500e-001	
  9.0484600e-001	
  9.9273700e-001	
  1.0708620e+000	
  1.1413570e+000	
  1.2060550e+000	
  1.2640380e+000	
  1.3183590e+000	
  1.3662720e+000	
  1.4077760e+000	
  1.4462280e+000	
  1.4761350e+000	
  1.4718630e+000	
  1.4309690e+000	
  1.3577270e+000	
  1.2664790e+000	
  1.1614990e+000	
  1.0357670e+000	
  8.9355500e-001	
  7.2937000e-001	
  5.4107700e-001	
  3.4515400e-001	
  1.3885500e-001	
 -7.4768000e-002	
 -2.8839100e-001	
 -4.9774200e-001	
 -6.9854700e-001	
 -8.9691200e-001	
 -1.0891720e+000	
 -1.2664790e+000	
 -1.4324950e+000	
 -1.5789790e+000	
 -1.7120360e+000	
 -1.8289180e+000	
 -1.9366460e+000	
 -2.0364380e+000	
 -2.1282960e+000	
 -2.2128300e+000	
 -2.2915650e+000	
 -2.3648070e+000	
 -2.4331670e+000	
 -2.4957280e+000	
 -2.5546260e+000	
 -2.6101680e+000	
 -2.6608280e+000	
 -2.7075200e+000	
 -2.7493290e+000	
 -2.7899170e+000	
 -2.8277590e+000	
 -2.8634640e+000	
 -2.8952030e+000	
 -2.9238890e+000	
 -2.9501340e+000	
 -2.9727170e+000	
 -2.9907230e+000	
 -3.0078120e+000	
 -3.0209350e+000	
 -3.0337520e+000	
 -3.0429080e+000	
 -3.0529790e+000	
 -3.0563350e+000	
 -3.0584720e+000	
 -3.0599980e+000	
 -3.0596920e+000	
 -3.0575560e+000	
 -3.0523680e+000	
 -3.0496220e+000	
 -3.0471800e+000	
 -3.0438230e+000	
 -3.0389400e+000	
 -3.0288700e+000	
 -3.0212400e+000	
 -3.0139160e+000	
 -3.0068970e+000	
 -2.9974370e+000	
 -2.9907230e+000	
 -2.9830930e+000	
 -2.9763790e+000	
 -2.9690550e+000	
 -2.9614260e+000	
 -2.9553220e+000	
 -2.9479980e+000	
 -2.9412840e+000	
 -2.9333500e+000	
 -2.9251100e+000	
 -2.9156490e+000	
 -2.9071040e+000	
 -2.8967290e+000	
 -2.8866580e+000	
 -2.8787230e+000	
 -2.8656010e+000	
 -2.8582760e+000	
 -2.8463750e+000	
 -2.8347780e+000	
 -2.8219600e+000	
 -2.8106690e+000	
 -2.7941890e+000	
 -2.7810670e+000	
 -2.7673340e+000	
 -2.7557370e+000	
 -2.7456670e+000	
 -2.7365110e+000	
 -2.7282710e+000	
 -2.7188110e+000	
 -2.7090450e+000	
 -2.6986690e+000	
 -2.6907350e+000	
 -2.6800540e+000	
 -2.6721190e+000	
 -2.6663210e+000	
 -2.6593020e+000	
 -2.6531980e+000	
 -2.6452640e+000	
 -2.6373290e+000	
 -2.6290890e+000	
 -2.6242070e+000	
 -2.6165770e+000	
 -2.6089480e+000	
 -2.6025390e+000	
 -2.5964360e+000	
 -2.5872800e+000	
 -2.5775150e+000	
 -2.5677490e+000	
 -2.5598140e+000	
 -2.5515750e+000	
 -2.5436400e+000	
 -2.5378420e+000	
 -2.5277710e+000	
 -2.5186160e+000	
 -2.5097660e+000	
 -2.5009160e+000	
 -2.4923710e+000	
 -2.4865720e+000	
 -2.4771120e+000	
 -2.4703980e+000	
 -2.4621580e+000	
 -2.4533080e+000	
 -2.4465940e+000	
 -2.4395750e+000	
 -2.4319460e+000	
 -2.4200440e+000	
 -2.4108890e+000	
 -2.4029540e+000	
 -2.3947140e+000	
 -2.3852540e+000	
 -2.3794560e+000	
 -2.3745730e+000	
 -2.3699950e+000	
 -2.3645020e+000	
 -2.3568730e+000	
 -2.3501590e+000	
 -2.3416140e+000	
 -2.3345950e+000	
 -2.3245240e+000	
 -2.3172000e+000	
 -2.3114010e+000	
 -2.3046880e+000	
 -2.2976680e+000	
 -2.2875980e+000	
 -2.2784420e+000	
 -2.2711180e+000	
 -2.2610470e+000	
 -2.2497560e+000	
 -2.2396850e+000	
 -2.2280880e+000	
 -2.2195430e+000	
 -2.2064210e+000	
 -2.1945190e+000	
 -2.1798710e+000	
 -2.1643070e+000	
 -2.1502690e+000	
 -2.1356200e+000	
 -2.1228030e+000	
 -2.1093750e+000	
 -2.0953370e+000	
 -2.0812990e+000	
 -2.0654300e+000	
 -2.0526120e+000	
 -2.0379640e+000	
 -2.0220950e+000	
 -2.0056150e+000	
 -1.9894410e+000	
 -1.9747920e+000	
 -1.9577030e+000	
 -1.9424440e+000	
 -1.9281010e+000	
 -1.9134520e+000	
 -1.8991090e+000	
 -1.8814090e+000	
 -1.8649290e+000	
 -1.8490600e+000	
 -1.8313600e+000	
 -1.8145750e+000	
 -1.7987060e+000	
 -1.7794800e+000	
 -1.7620850e+000	
 -1.7431640e+000	
 -1.7263790e+000	
 -1.7102050e+000	
 -1.6943360e+000	
 -1.6772460e+000	
 -1.6592410e+000	
 -1.6427610e+000	
 -1.6284180e+000	
 -1.6137700e+000	
 -1.5979000e+000	
 -1.5826420e+000	
 -1.5658570e+000	
 -1.5499880e+000	
 -1.5338130e+000	
 -1.5185550e+000	
 -1.5039060e+000	
 -1.4898680e+000	
 -1.4752200e+000	
 -1.4617920e+000	
 -1.4465330e+000	
 -1.4279170e+000	
 -1.4093020e+000	
 -1.3919070e+000	
 -1.3739010e+000	
 -1.3592530e+000	
 -1.3439940e+000	
 -1.3317870e+000	
 -1.3220210e+000	
 -1.3113400e+000	
 -1.3037110e+000	
 -1.2969970e+000	
 -1.2924190e+000	
 -1.2857060e+000	
 -1.2792970e+000	
 -1.2731930e+000	
 -1.2680050e+000	
 -1.2637330e+000	
 -1.2619020e+000	
 -1.2573240e+000	
 -1.2539670e+000	
 -1.2500000e+000	
 -1.2496950e+000	
 -1.2466430e+000	
 -1.2454220e+000	
 -1.2426760e+000	
 -1.2432860e+000	
 -1.2445070e+000	
 -1.2469480e+000	
 -1.2472530e+000	
 -1.2521360e+000	
 -1.2564090e+000	
 -1.2606810e+000	
 -1.2646480e+000	
 -1.2722780e+000	
 -1.2805180e+000	
 -1.2915040e+000	
 -1.3006590e+000	
 -1.3104250e+000	
 -1.3220210e+000	
 -1.3351440e+000	
 -1.3476560e+000	
 -1.3632200e+000	
 -1.3809200e+000	
 -1.3989260e+000	
 -1.4215090e+000	
 -1.4422610e+000	
 -1.4645390e+000	
 -1.4874270e+000	
 -1.5100100e+000	
 -1.5332030e+000	
 -1.5582280e+000	
 -1.5841670e+000	
 -1.6113280e+000	
 -1.6384890e+000	
 -1.6687010e+000	
 -1.6992190e+000	
 -1.7285160e+000	
 -1.7587280e+000	
 -1.7901610e+000	
 -1.8218990e+000	
 -1.8533330e+000	
 -1.8850710e+000	
 -1.9192500e+000	
 -1.9503780e+000	
 -1.9818120e+000	
 -2.0144650e+000	
 -2.0495610e+000	
 -2.0828250e+000	
 -2.1170040e+000	
 -2.1487430e+000	
 -2.1792600e+000	
 -2.2109990e+000	
 -2.2421260e+000	
 -2.2735600e+000	
 -2.3062130e+000	
 -2.3382570e+000	
 -2.3696900e+000	
 -2.3986820e+000	
 -2.4279790e+000	
 -2.4569700e+000	
 -2.4859620e+000	
 -2.5131230e+000	
 -2.5427250e+000	
 -2.5708010e+000	
 -2.5988770e+000	
 -2.6257320e+000	
 -2.6547240e+000	
 -2.6843260e+000	
 -2.7108760e+000	
 -2.7359010e+000	
 -2.7603150e+000	
 -2.7847290e+000	
 -2.8079220e+000	
 -2.8311160e+000	
 -2.8536990e+000	
 -2.8750610e+000	
 -2.8958130e+000	
 -2.9141240e+000	
 -2.9348750e+000	
 -2.9565430e+000	
 -2.9754640e+000	
 -2.9916380e+000	
 -3.0120850e+000	
 -3.0258180e+000	
 -3.0392460e+000	
 -3.0532840e+000	
 -3.0664060e+000	
 -3.0798340e+000	
 -3.0920410e+000	
 -3.1033330e+000	
 -3.1152340e+000	
 -3.1265260e+000	
 -3.1405640e+000	
 -3.1527710e+000	
 -3.1649780e+000	
 -3.1762700e+000	
 -3.1848140e+000	
 -3.1939700e+000	
 -3.2006840e+000	
 -3.2086180e+000	
 -3.2186890e+000	
 -3.2272340e+000	
 -3.2327270e+000	
 -3.2397460e+000	
 -3.2461550e+000	
 -3.2525630e+000	
 -3.2574460e+000	
 -3.2614140e+000	
 -3.2672120e+000	
 -3.2708740e+000	
 -3.2754520e+000	
 -3.2794190e+000	
 -3.2843020e+000	
 -3.2864380e+000	
 -3.2888790e+000	
 -3.2882690e+000	
 -3.2901000e+000	
 -3.2925420e+000	
 -3.2934570e+000	
 -3.2934570e+000	
 -3.2922360e+000	
 -3.2922360e+000	
 -3.2919310e+000	
 -3.2904050e+000	
 -3.2882690e+000	
 -3.2867430e+000	
 -3.2861330e+000	
 -3.2830810e+000	
 -3.2794190e+000	
 -3.2754520e+000	
 -3.2699580e+000	
 -3.2690430e+000	
 -3.2662960e+000	
 -3.2641600e+000	
 -3.2626340e+000	
 -3.2604980e+000	
 -3.2583620e+000	
 -3.2559200e+000	
 -3.2528690e+000	
 -3.2513430e+000	
 -3.2479860e+000	
 -3.2467650e+000	
 -3.2437130e+000	
 -3.2418820e+000	
 -3.2382200e+000	
 -3.2385250e+000	
 -3.2342530e+000	
 -3.2312010e+000	
 -3.2305910e+000	
 -3.2266240e+000	
 -3.2220460e+000	
 -3.2186890e+000	
 -3.2171630e+000	
 -3.2168580e+000	
 -3.2159420e+000	
 -3.2128910e+000	
 -3.2098390e+000	
 -3.2061770e+000	
 -3.2031250e+000	
 -3.1997680e+000	
 -3.1970210e+000	
 -3.1933590e+000	
 -3.1903080e+000	
 -3.1893920e+000	
 -3.1869510e+000	
 -3.1838990e+000	
 -3.1820680e+000	
 -3.1784060e+000	
 -3.1787110e+000	
 -3.1753540e+000	
 -3.1729130e+000	
 -3.1713870e+000	
 -3.1713870e+000	
 -3.1716920e+000	
 -3.1738280e+000	
 -3.1741330e+000	
 -3.1762700e+000	
 -3.1796260e+000	
 -3.1826780e+000	
 -3.1842040e+000	
 -3.1838990e+000	
 -3.1866460e+000	
 -3.1875610e+000	
 -3.1890870e+000	
 -3.1896970e+000	
 -3.1893920e+000	
 -3.1866460e+000	
 -3.1848140e+000	
 -3.1845090e+000	
 -3.1832890e+000	
 -3.1832890e+000	
 -3.1823730e+000	
 -3.1820680e+000	
 -3.1817630e+000	
 -3.1811520e+000	
 -3.1814580e+000	
 -3.1799320e+000	
 -3.1796260e+000	
 -3.1781010e+000	
 -3.1747440e+000	
 -3.1753540e+000	
 -3.1759640e+000	
 -3.1741330e+000	
 -3.1716920e+000	
 -3.1695560e+000	
 -3.1674190e+000	
 -3.1665040e+000	
 -3.1655880e+000	
 -3.1625370e+000	
 -3.1616210e+000	
 -3.1613160e+000	
 -3.1585690e+000	
 -3.1622310e+000	
 -3.1625370e+000	
 -3.1613160e+000	
 -3.1625370e+000	
 -3.1625370e+000	
 -3.1631470e+000	
 -3.1643680e+000	
 -3.1622310e+000	
 -3.1616210e+000	
 -3.1616210e+000	
 -3.1622310e+000	
 -3.1600950e+000	
 -3.1600950e+000	
 -3.1591800e+000	
 -3.1573490e+000	
 -3.1576540e+000	
 -3.1558230e+000	
 -3.1536870e+000	
 -3.1536870e+000	
 -3.1542970e+000	
 -3.1524660e+000	
 -3.1521610e+000	
 -3.1530760e+000	
 -3.1533810e+000	
 -3.1533810e+000	
 -3.1527710e+000	
 -3.1564330e+000	
 -3.1582640e+000	
 -3.1604000e+000	
 -3.1625370e+000	
 -3.1661990e+000	
 -3.1652830e+000	
 -3.1668090e+000	
 -3.1668090e+000	
 -3.1686400e+000	
 -3.1701660e+000	
 -3.1683350e+000	
 -3.1710820e+000	
 -3.1701660e+000	
 -3.1713870e+000	
 -3.1707760e+000	
 -3.1704710e+000	
 -3.1701660e+000	
 -3.1707760e+000	
 -3.1680300e+000	
 -3.1683350e+000	
 -3.1658940e+000	
 -3.1649780e+000	
 -3.1619260e+000	
 -3.1622310e+000	
 -3.1607060e+000	
 -3.1600950e+000	
 -3.1585690e+000	
 -3.1573490e+000	
 -3.1570430e+000	
 -3.1579590e+000	
 -3.1604000e+000	
 -3.1610110e+000	
 -3.1622310e+000	
 -3.1637570e+000	
 -3.1616210e+000	
 -3.1616210e+000	
 -3.1625370e+000	
 -3.1631470e+000	
 -3.1625370e+000	
 -3.1610110e+000	
 -3.1582640e+000	
 -3.1561280e+000	
 -3.1527710e+000	
 -3.1515500e+000	
 -3.1497190e+000	
 -3.1503300e+000	
 -3.1491090e+000	
 -3.1466670e+000	
 -3.1454470e+000	
 -3.1442260e+000	
 -3.1442260e+000	
 -3.1430050e+000	
 -3.1433110e+000	
 -3.1427000e+000	
 -3.1411740e+000	
 -3.1417850e+000	
 -3.1414790e+000	
 -3.1417850e+000	
 -3.1448360e+000	
 -3.1457520e+000	
 -3.1457520e+000	
 -3.1445310e+000	
 -3.1457520e+000	
 -3.1454470e+000	
 -3.1460570e+000	
 -3.1451420e+000	
 -3.1451420e+000	
 -3.1457520e+000	
 -3.1466670e+000	
 -3.1472780e+000	
 -3.1469730e+000	
 -3.1494140e+000	
 -3.1506350e+000	
 -3.1494140e+000	
 -3.1481930e+000	
 -3.1481930e+000	
 -3.1478880e+000	
 -3.1472780e+000	
 -3.1478880e+000	
 -3.1472780e+000	
 -3.1460570e+000	
 -3.1442260e+000	
 -3.1414790e+000	
 -3.1411740e+000	
 -3.1405640e+000	
 -3.1393430e+000	
 -3.1396480e+000	
 -3.1335450e+000	
 -3.1326290e+000	
 -3.1304930e+000	
 -3.1280520e+000	
 -3.1253050e+000	
 -3.1228640e+000	
 -3.1207280e+000	
 -3.1182860e+000	
 -3.1167600e+000	
 -3.1155400e+000	
 -3.1140140e+000	
 -3.1106570e+000	
 -3.1109620e+000	
 -3.1097410e+000	
 -3.1103520e+000	
 -3.1094360e+000	
 -3.1103520e+000	
 -3.1091310e+000	
 -3.1076050e+000	
 -3.1069950e+000	
 -3.1024170e+000	
 -3.0996700e+000	
 -3.0975340e+000	
 -3.0947880e+000	
 -3.0923460e+000	
 -3.0902100e+000	
 -3.0896000e+000	
 -3.0877690e+000	
 -3.0825810e+000	
 -3.0780030e+000	
 -3.0755620e+000	
 -3.0725100e+000	
 -3.0706790e+000	
 -3.0667110e+000	
 -3.0642700e+000	
 -3.0633540e+000	
 -3.0642700e+000	
 -3.0618290e+000	
 -3.0609130e+000	
 -3.0615230e+000	
 -3.0599980e+000	
 -3.0593870e+000	
 -3.0566410e+000	
 -3.0584720e+000	
 -3.0593870e+000	
 -3.0606080e+000	
 -3.0621340e+000	
 -3.0642700e+000	
 -3.0630490e+000	
 -3.0621340e+000	
 -3.0609130e+000	
 -3.0621340e+000	
 -3.0630490e+000	
 -3.0621340e+000	
 -3.0590820e+000	
 -3.0572510e+000	
 -3.0560300e+000	
 -3.0548100e+000	
 -3.0545040e+000	
 -3.0499270e+000	
 -3.0453490e+000	
 -3.0422970e+000	
 -3.0386350e+000	
 -3.0364990e+000	
 -3.0322270e+000	
 -3.0279540e+000	
 -3.0255130e+000	
 -3.0227660e+000	
 -3.0197140e+000	
 -3.0172730e+000	
 -3.0160520e+000	
 -3.0130000e+000	
 -3.0105590e+000	
 -3.0084230e+000	
 -3.0075070e+000	
 -3.0062870e+000	
 -3.0056760e+000	
 -3.0029300e+000	
 -3.0032350e+000	
 -3.0020140e+000	
 -3.0032350e+000	
 -3.0001830e+000	
 -2.9980470e+000	
 -2.9968260e+000	
 -2.9949950e+000	
 -2.9937740e+000	
 -2.9934690e+000	
 -2.9925540e+000	
 -2.9898070e+000	
 -2.9901120e+000	
 -2.9870610e+000	
 -2.9858400e+000	
 -2.9849240e+000	
 -2.9827880e+000	
 -2.9821780e+000	
 -2.9800420e+000	
 -2.9779050e+000	
 -2.9754640e+000	
 -2.9721070e+000	
 -2.9690550e+000	
 -2.9626460e+000	
 -2.9553220e+000	
 -2.9479980e+000	
 -2.9388430e+000	
 -2.9302980e+000	
 -2.9196170e+000	
 -2.9077150e+000	
 -2.8973390e+000	
 -2.8842160e+000	
 -2.8707890e+000	
 -2.8558350e+000	
 -2.8417970e+000	
 -2.8256230e+000	
 -2.8121950e+000	
 -2.7975460e+000	
 -2.7828980e+000	
 -2.7688600e+000	
 -2.7569580e+000	
 -2.7447510e+000	
 -2.7337650e+000	
 -2.7230830e+000	
 -2.7151490e+000	
 -2.7084350e+000	
 -2.6998900e+000	
 -2.6925660e+000	
 -2.6846310e+000	
 -2.6770020e+000	
 -2.6672360e+000	
 -2.6608280e+000	
 -2.6531980e+000	
 -2.6470950e+000	
 -2.6400760e+000	
 -2.6300050e+000	
 -2.6208500e+000	
 -2.6132200e+000	
 -2.6028440e+000	
 -2.5942990e+000	
 -2.5839230e+000	
 -2.5711060e+000	
 -2.5607300e+000	
 -2.5473020e+000	
 -2.5372310e+000	
 -2.5283810e+000	
 -2.5177000e+000	
 -2.5082400e+000	
 -2.4993900e+000	
 -2.4929810e+000	
 -2.4859620e+000	
 -2.4758910e+000	
 -2.4719240e+000	
 -2.4655150e+000	
 -2.4621580e+000	
 -2.4594120e+000	
 -2.4600220e+000	
 -2.4609380e+000	
 -2.4639890e+000	
 -2.4688720e+000	
 -2.4725340e+000	
 -2.4746700e+000	
 -2.4786380e+000	
 -2.4826050e+000	
 -2.4908450e+000	
 -2.4972530e+000	
 -2.5036620e+000	
 -2.5106810e+000	
 -2.5164790e+000	
 -2.5204470e+000	
 -2.5234990e+000	
 -2.5283810e+000	
 -2.5332640e+000	
 -2.5408940e+000	
 -2.5463870e+000	
 -2.5512700e+000	
 -2.5558470e+000	
 -2.5598140e+000	
 -2.5637820e+000	
 -2.5671390e+000	
 -2.5704960e+000	
 -2.5753780e+000	
 -2.5781250e+000	
 -2.5842290e+000	
 -2.5915530e+000	
 -2.5979610e+000	
 -2.6046750e+000	
 -2.6120000e+000	
 -2.6193240e+000	
 -2.6300050e+000	
 -2.6400760e+000	
 -2.6495360e+000	
 -2.6593020e+000	
 -2.6715090e+000	
 -2.6815800e+000	
 -2.6931760e+000	
 -2.7029420e+000	
 -2.7151490e+000	
 -2.7270510e+000	
 -2.7392580e+000	
 -2.7526860e+000	
 -2.7679440e+000	
 -2.7819820e+000	
 -2.7963260e+000	
 -2.8063960e+000	
 -2.8182980e+000	
 -2.8283690e+000	
 -2.8393550e+000	
 -2.8491210e+000	
 -2.8582760e+000	
 -2.8665160e+000	
 -2.8759770e+000	
 -2.8836060e+000	
 -2.8924560e+000	
 -2.8994750e+000	
 -2.9064940e+000	
 -2.9147340e+000	
 -2.9211430e+000	
 -2.9269410e+000	
 -2.9324340e+000	
 -2.9388430e+000	
 -2.9440310e+000	
 -2.9495240e+000	
 -2.9550170e+000	
 -2.9595950e+000	
 -2.9638670e+000	
 -2.9693600e+000	
 -2.9745480e+000	
 -2.9812620e+000	
 -2.9833980e+000	
 -2.9870610e+000	
 -2.9895020e+000	
 -2.9925540e+000	
 -2.9968260e+000	
 -3.0010990e+000	
 -3.0047610e+000	
 -3.0081180e+000	
 -3.0111690e+000	
 -3.0136110e+000	
 -3.0175780e+000	
 -3.0187990e+000	
 -3.0209350e+000	
 -3.0242920e+000	
 -3.0252080e+000	
 -3.0270390e+000	
 -3.0261230e+000	
 -3.0261230e+000	
 -3.0276490e+000	
 -3.0294800e+000	
 -3.0303960e+000	
 -3.0291750e+000	
 -3.0279540e+000	
 -3.0242920e+000	
 -3.0255130e+000	
 -3.0264280e+000	
 -3.0276490e+000	
 -3.0270390e+000	
 -3.0282590e+000	
 -3.0273440e+000	
 -3.0291750e+000	
 -3.0325320e+000	
 -3.0349730e+000	
 -3.0386350e+000	
 -3.0404660e+000	
 -3.0404660e+000	
 -3.0419920e+000	
 -3.0462650e+000	
 -3.0505370e+000	
 -3.0545040e+000	
 -3.0590820e+000	
 -3.0609130e+000	
 -3.0645750e+000	
 -3.0703740e+000	
 -3.0761720e+000	
 -3.0825810e+000	
 -3.0902100e+000	
 -3.0966190e+000	
 -3.1042480e+000	
 -3.1103520e+000	
 -3.1121830e+000	
 -3.1106570e+000	
 -3.1060790e+000	
 -3.0947880e+000	
 -3.0789180e+000	
 -3.0572510e+000	
 -3.0276490e+000	
 -2.9898070e+000	
 -2.9437260e+000	
 -2.8894040e+000	
 -2.8295900e+000	
 -2.7572630e+000	
 -2.6708980e+000	
 -2.5729370e+000	
 -2.4606320e+000	
 -2.3410030e+000	
 -2.2106930e+000	
 -2.0623780e+000	
 -1.8966670e+000	
 -1.7150880e+000	
 -1.5176390e+000	
 -1.3058470e+000	
 -1.0812380e+000	
 -8.4014900e-001	
 -5.8380100e-001	
 -3.4301800e-001	
 -1.1901900e-001	
  8.3618000e-002	
  2.6367200e-001	
  4.2175300e-001	
  5.6335400e-001	
  6.8939200e-001	
  8.0261200e-001	
  9.0484600e-001	
  9.9304200e-001	
  1.0720830e+000	
  1.1441040e+000	
  1.2112430e+000	
  1.2695310e+000	
  1.3223270e+000	
  1.3735960e+000	
  1.4144900e+000	
  1.4456180e+000	
  1.4511110e+000	
  1.4236450e+000	
  1.3629150e+000	
  1.2814330e+000	
  1.1825560e+000	
  1.0617070e+000	
  9.2102100e-001	
  7.6385500e-001	
  5.9265100e-001	
  4.0466300e-001	
  2.0843500e-001	
 -1.5260000e-003	
 -2.1301300e-001	
 -4.2480500e-001	
 -6.3171400e-001	
 -8.3618200e-001	
 -1.0363770e+000	
 -1.2265010e+000	
 -1.3992310e+000	
 -1.5560910e+000	
 -1.6976930e+000	
 -1.8267820e+000	
 -1.9476320e+000	
 -2.0581050e+000	
 -2.1609500e+000	
 -2.2525020e+000	
 -2.3361210e+000	
 -2.4148560e+000	
 -2.4917600e+000	
 -2.5628660e+000	
 -2.6272580e+000	
 -2.6852420e+000	
 -2.7392580e+000	
 -2.7905270e+000	
 -2.8344730e+000	
 -2.8747560e+000	
 -2.9122920e+000	
 -2.9476930e+000	
 -2.9785160e+000	
 -3.0075070e+000	
 -3.0331420e+000	
 -3.0569460e+000	
 -3.0746460e+000	
 -3.0874630e+000	
 -3.0990600e+000	
 -3.1082150e+000	
 -3.1167600e+000	
 -3.1201170e+000	
 -3.1231690e+000	
 -3.1243900e+000	
 -3.1216430e+000	
 -3.1170650e+000	
 -3.1137080e+000	
 -3.1063840e+000	
 -3.0966190e+000	
 -3.0899050e+000	
 -3.0801390e+000	
 -3.0685420e+000	
 -3.0554200e+000	
 -3.0438230e+000	
 -3.0331420e+000	
 -3.0215450e+000	
 -3.0102540e+000	
 -2.9995730e+000	
 -2.9888920e+000	
 -2.9791260e+000	
 -2.9687500e+000	
 -2.9589840e+000	
 -2.9476930e+000	
 -2.9339600e+000	
 -2.9248050e+000	
 -2.9171750e+000	
 -2.9101560e+000	
 -2.9019170e+000	
 -2.8915410e+000	
 -2.8802490e+000	
 -2.8710940e+000	
 -2.8625490e+000	
 -2.8500370e+000	
 -2.8421020e+000	
 -2.8344730e+000	
 -2.8271480e+000	
 -2.8167720e+000	
 -2.8067020e+000	
 -2.7987670e+000	
 -2.7920530e+000	
 -2.7828980e+000	
 -2.7728270e+000	
 -2.7630620e+000	
 -2.7560420e+000	
 -2.7478030e+000	
 -2.7392580e+000	
 -2.7301030e+000	
 -2.7188110e+000	
 -2.7096560e+000	
 -2.7014160e+000	
 -2.6937870e+000	
 -2.6864620e+000	
 -2.6788330e+000	
 -2.6708980e+000	
 -2.6644900e+000	
 -2.6574710e+000	
 -2.6501460e+000	
 -2.6409910e+000	
 -2.6321410e+000	
 -2.6229860e+000	
 -2.6150510e+000	
 -2.6089480e+000	
 -2.6016240e+000	
 -2.5909420e+000	
 -2.5802610e+000	
 -2.5720210e+000	
 -2.5631710e+000	
 -2.5531010e+000	
 -2.5451660e+000	
 -2.5350950e+000	
 -2.5265500e+000	
 -2.5180050e+000	
 -2.5070190e+000	
 -2.5015260e+000	
 -2.4926760e+000	
 -2.4871830e+000	
 -2.4792480e+000	
 -2.4697880e+000	
 -2.4627690e+000	
 -2.4533080e+000	
 -2.4453740e+000	
 -2.4371340e+000	
 -2.4252320e+000	
 -2.4136350e+000	
 -2.4041750e+000	
 -2.3953250e+000	
 -2.3843380e+000	
 -2.3736570e+000	
 -2.3626710e+000	
 -2.3538210e+000	
 -2.3452760e+000	
 -2.3361210e+000	
 -2.3284910e+000	
 -2.3202510e+000	
 -2.3135380e+000	
 -2.3040770e+000	
 -2.2958370e+000	
 -2.2885130e+000	
 -2.2805790e+000	
 -2.2698970e+000	
 -2.2595210e+000	
 -2.2497560e+000	
 -2.2390750e+000	
 -2.2302250e+000	
 -2.2171020e+000	
 -2.2052000e+000	
 -2.1926880e+000	
 -2.1807860e+000	
 -2.1673580e+000	
 -2.1575930e+000	
 -2.1478270e+000	
 -2.1389770e+000	
 -2.1304320e+000	
 -2.1231080e+000	
 -2.1151730e+000	
 -2.1051030e+000	
 -2.0928960e+000	
 -2.0816040e+000	
 -2.0693970e+000	
 -2.0584110e+000	
 -2.0455930e+000	
 -2.0346070e+000	
 -2.0239260e+000	
 -2.0108030e+000	
 -1.9992070e+000	
 -1.9863890e+000	
 -1.9741820e+000	
 -1.9616700e+000	
 -1.9491580e+000	
 -1.9311520e+000	
 -1.9165040e+000	
 -1.9003300e+000	
 -1.8853760e+000	
 -1.8682860e+000	
 -1.8533330e+000	
 -1.8371580e+000	
 -1.8203740e+000	
 -1.8041990e+000	
 -1.7864990e+000	
 -1.7691040e+000	
 -1.7501830e+000	
 -1.7327880e+000	
 -1.7120360e+000	
 -1.6943360e+000	
 -1.6790770e+000	
 -1.6635130e+000	
 -1.6433720e+000	
 -1.6256710e+000	
 -1.6064450e+000	
 -1.5881350e+000	
 -1.5698240e+000	
 -1.5505980e+000	
 -1.5307620e+000	
 -1.5081790e+000	
 -1.4892580e+000	
 -1.4730830e+000	
 -1.4559940e+000	
 -1.4410400e+000	
 -1.4242550e+000	
 -1.4102170e+000	
 -1.3937380e+000	
 -1.3784790e+000	
 -1.3635250e+000	
 -1.3488770e+000	
 -1.3354490e+000	
 -1.3241580e+000	
 -1.3113400e+000	
 -1.2988280e+000	
 -1.2872310e+000	
 -1.2780760e+000	
 -1.2683110e+000	
 -1.2600710e+000	
 -1.2490840e+000	
 -1.2387080e+000	
 -1.2295530e+000	
 -1.2210080e+000	
 -1.2130740e+000	
 -1.2084960e+000	
 -1.2057500e+000	
 -1.2033080e+000	
 -1.2002560e+000	
 -1.1993410e+000	
 -1.1996460e+000	
 -1.1990360e+000	
 -1.2002560e+000	
 -1.2014770e+000	
 -1.2005620e+000	
 -1.2017820e+000	
 -1.2051390e+000	
 -1.2097170e+000	
 -1.2149050e+000	
 -1.2210080e+000	
 -1.2295530e+000	
 -1.2411500e+000	
 -1.2515260e+000	
 -1.2622070e+000	
 -1.2765500e+000	
 -1.2911990e+000	
 -1.3082890e+000	
 -1.3256840e+000	
 -1.3427730e+000	
 -1.3620000e+000	
 -1.3809200e+000	
 -1.4010620e+000	
 -1.4230350e+000	
 -1.4462280e+000	
 -1.4700320e+000	
 -1.4956670e+000	
 -1.5216060e+000	
 -1.5481570e+000	
 -1.5753170e+000	
 -1.6033940e+000	
 -1.6305540e+000	
 -1.6561890e+000	
 -1.6842650e+000	
 -1.7144780e+000	
 -1.7453000e+000	
 -1.7761230e+000	
 -1.8072510e+000	
 -1.8402100e+000	
 -1.8713380e+000	
 -1.9021610e+000	
 -1.9320680e+000	
 -1.9616700e+000	
 -1.9946290e+000	
 -2.0260620e+000	
 -2.0571900e+000	
 -2.0910640e+000	
 -2.1218870e+000	
 -2.1527100e+000	
 -2.1829220e+000	
 -2.2131350e+000	
 -2.2427370e+000	
 -2.2711180e+000	
 -2.3013310e+000	
 -2.3300170e+000	
 -2.3605350e+000	
 -2.3904420e+000	
 -2.4179080e+000	
 -2.4465940e+000	
 -2.4746700e+000	
 -2.5006100e+000	
 -2.5280760e+000	
 -2.5543210e+000	
 -2.5820920e+000	
 -2.6077270e+000	
 -2.6348880e+000	
 -2.6593020e+000	
 -2.6852420e+000	
 -2.7105710e+000	
 -2.7343750e+000	
 -2.7575680e+000	
 -2.7810670e+000	
 -2.8021240e+000	
 -2.8237920e+000	
 -2.8448490e+000	
 -2.8649900e+000	
 -2.8851320e+000	
 -2.9031370e+000	
 -2.9211430e+000	
 -2.9397580e+000	
 -2.9550170e+000	
 -2.9739380e+000	
 -2.9879760e+000	
 -3.0038450e+000	
 -3.0181880e+000	
 -3.0310060e+000	
 -3.0453490e+000	
 -3.0590820e+000	
 -3.0734250e+000	
 -3.0856320e+000	
 -3.0981450e+000	
 -3.1073000e+000	
 -3.1192020e+000	
 -3.1311040e+000	
 -3.1408690e+000	
 -3.1518550e+000	
 -3.1607060e+000	
 -3.1677250e+000	
 -3.1723020e+000	
 -3.1759640e+000	
 -3.1787110e+000	
 -3.1817630e+000	
 -3.1863400e+000	
 -3.1906130e+000	
 -3.1961060e+000	
 -3.2003780e+000	
 -3.2037350e+000	
 -3.2052610e+000	
 -3.2067870e+000	
 -3.2070920e+000	
 -3.2080080e+000	
 -3.2080080e+000	
 -3.2101440e+000	
 -3.2104490e+000	
 -3.2125850e+000	
 -3.2150270e+000	
 -3.2180790e+000	
 -3.2165530e+000	
 -3.2168580e+000	
 -3.2183840e+000	
 -3.2174680e+000	
 -3.2186890e+000	
 -3.2177730e+000	
 -3.2165530e+000	
 -3.2141110e+000	
 -3.2135010e+000	
 -3.2122800e+000	
 -3.2110600e+000	
 -3.2098390e+000	
 -3.2083130e+000	
 -3.2080080e+000	
 -3.2070920e+000	
 -3.2049560e+000	
 -3.2037350e+000	
 -3.2022090e+000	
 -3.1988530e+000	
 -3.1970210e+000	
 -3.1936650e+000	
 -3.1930540e+000	
 -3.1924440e+000	
 -3.1909180e+000	
 -3.1878660e+000	
 -3.1851200e+000	
 -3.1820680e+000	
 -3.1793210e+000	
 -3.1765750e+000	
 -3.1732180e+000	
 -3.1704710e+000	
 -3.1658940e+000	
 -3.1640620e+000	
 -3.1594850e+000	
 -3.1546020e+000	
 -3.1521610e+000	
 -3.1484990e+000	
 -3.1466670e+000	
 -3.1451420e+000	
 -3.1423950e+000	
 -3.1427000e+000	
 -3.1427000e+000	
 -3.1408690e+000	
 -3.1393430e+000	
 -3.1390380e+000	
 -3.1405640e+000	
 -3.1411740e+000	
 -3.1405640e+000	
 -3.1393430e+000	
 -3.1378170e+000	
 -3.1353760e+000	
 -3.1347660e+000	
 -3.1353760e+000	
 -3.1344600e+000	
 -3.1335450e+000	
 -3.1326290e+000	
 -3.1317140e+000	
 -3.1289670e+000	
 -3.1277470e+000	
 -3.1274410e+000	
 -3.1268310e+000	
 -3.1250000e+000	
 -3.1262210e+000	
 -3.1250000e+000	
 -3.1234740e+000	
 -3.1225590e+000	
 -3.1201170e+000	
 -3.1201170e+000	
 -3.1188960e+000	
 -3.1179810e+000	
 -3.1179810e+000	
 -3.1161500e+000	
 -3.1134030e+000	
 -3.1118770e+000	
 -3.1134030e+000	
 -3.1152340e+000	
 -3.1146240e+000	
 -3.1137080e+000	
 -3.1143190e+000	
 -3.1155400e+000	
 -3.1143190e+000	
 -3.1143190e+000	
 -3.1146240e+000	
 -3.1118770e+000	
 -3.1091310e+000	
 -3.1066890e+000	
 -3.1042480e+000	
 -3.0999760e+000	
 -3.0966190e+000	
 -3.0932620e+000	
 -3.0926510e+000	
 -3.0923460e+000	
 -3.0914310e+000	
 -3.0908200e+000	
 -3.0899050e+000	
 -3.0883790e+000	
 -3.0896000e+000	
 -3.0905150e+000	
 -3.0914310e+000	
 -3.0905150e+000	
 -3.0883790e+000	
 -3.0889890e+000	
 -3.0899050e+000	
 -3.0905150e+000	
 -3.0911250e+000	
 -3.0935670e+000	
 -3.0957030e+000	
 -3.0960080e+000	
 -3.1005860e+000	
 -3.1008910e+000	
 -3.1033330e+000	
 -3.1057740e+000	
 -3.1076050e+000	
 -3.1085210e+000	
 -3.1094360e+000	
 -3.1103520e+000	
 -3.1109620e+000	
 -3.1115720e+000	
 -3.1103520e+000	
 -3.1112670e+000	
 -3.1112670e+000	
 -3.1115720e+000	
 -3.1106570e+000	
 -3.1103520e+000	
 -3.1094360e+000	
 -3.1069950e+000	
 -3.1054690e+000	
 -3.1042480e+000	
 -3.1039430e+000	
 -3.1042480e+000	
 -3.1048580e+000	
 -3.1042480e+000	
 -3.1024170e+000	
 -3.1018070e+000	
 -3.1005860e+000	
 -3.1005860e+000	
 -3.1018070e+000	
 -3.1021120e+000	
 -3.1033330e+000	
 -3.1033330e+000	
 -3.1033330e+000	
 -3.1042480e+000	
 -3.1054690e+000	
 -3.1060790e+000	
 -3.1051640e+000	
 -3.1063840e+000	
 -3.1073000e+000	
 -3.1082150e+000	
 -3.1094360e+000	
 -3.1124880e+000	
 -3.1155400e+000	
 -3.1182860e+000	
 -3.1204220e+000	
 -3.1234740e+000	
 -3.1246950e+000	
 -3.1253050e+000	
 -3.1268310e+000	
 -3.1262210e+000	
 -3.1277470e+000	
 -3.1271360e+000	
 -3.1292720e+000	
 -3.1283570e+000	
 -3.1298830e+000	
 -3.1298830e+000	
 -3.1283570e+000	
 -3.1240840e+000	
 -3.1198120e+000	
 -3.1192020e+000	
 -3.1164550e+000	
 -3.1137080e+000	
 -3.1143190e+000	
 -3.1127930e+000	
 -3.1130980e+000	
 -3.1127930e+000	
 -3.1112670e+000	
 -3.1130980e+000	
 -3.1137080e+000	
 -3.1152340e+000	
 -3.1170650e+000	
 -3.1182860e+000	
 -3.1188960e+000	
 -3.1173710e+000	
 -3.1164550e+000	
 -3.1158450e+000	
 -3.1164550e+000	
 -3.1176760e+000	
 -3.1158450e+000	
 -3.1170650e+000	
 -3.1124880e+000	
 -3.1112670e+000	
 -3.1100460e+000	
 -3.1097410e+000	
 -3.1054690e+000	
 -3.1024170e+000	
 -3.0957030e+000	
 -3.0923460e+000	
 -3.0865480e+000	
 -3.0810550e+000	
 -3.0761720e+000	
 -3.0706790e+000	
 -3.0703740e+000	
 -3.0673220e+000	
 -3.0664060e+000	
 -3.0651860e+000	
 -3.0642700e+000	
 -3.0642700e+000	
 -3.0636600e+000	
 -3.0633540e+000	
 -3.0627440e+000	
 -3.0627440e+000	
 -3.0633540e+000	
 -3.0627440e+000	
 -3.0618290e+000	
 -3.0618290e+000	
 -3.0584720e+000	
 -3.0572510e+000	
 -3.0566410e+000	
 -3.0545040e+000	
 -3.0526730e+000	
 -3.0520630e+000	
 -3.0496220e+000	
 -3.0499270e+000	
 -3.0514530e+000	
 -3.0514530e+000	
 -3.0508420e+000	
 -3.0477910e+000	
 -3.0456540e+000	
 -3.0456540e+000	
 -3.0465700e+000	
 -3.0456540e+000	
 -3.0453490e+000	
 -3.0441280e+000	
 -3.0453490e+000	
 -3.0468750e+000	
 -3.0465700e+000	
 -3.0471800e+000	
 -3.0468750e+000	
 -3.0474850e+000	
 -3.0505370e+000	
 -3.0493160e+000	
 -3.0484010e+000	
 -3.0462650e+000	
 -3.0453490e+000	
 -3.0444340e+000	
 -3.0435180e+000	
 -3.0432130e+000	
 -3.0407710e+000	
 -3.0386350e+000	
 -3.0368040e+000	
 -3.0346680e+000	
 -3.0328370e+000	
 -3.0307010e+000	
 -3.0307010e+000	
 -3.0291750e+000	
 -3.0288700e+000	
 -3.0291750e+000	
 -3.0264280e+000	
 -3.0239870e+000	
 -3.0215450e+000	
 -3.0197140e+000	
 -3.0181880e+000	
 -3.0163570e+000	
 -3.0114750e+000	
 -3.0084230e+000	
 -3.0072020e+000	
 -3.0023190e+000	
 -3.0010990e+000	
 -2.9995730e+000	
 -2.9983520e+000	
 -2.9974370e+000	
 -2.9956050e+000	
 -2.9934690e+000	
 -2.9919430e+000	
 -2.9913330e+000	
 -2.9888920e+000	
 -2.9861450e+000	
 -2.9858400e+000	
 -2.9833980e+000	
 -2.9815670e+000	
 -2.9815670e+000	
 -2.9800420e+000	
 -2.9797360e+000	
 -2.9769900e+000	
 -2.9754640e+000	
 -2.9760740e+000	
 -2.9769900e+000	
 -2.9779050e+000	
 -2.9794310e+000	
 -2.9776000e+000	
 -2.9766850e+000	
 -2.9763790e+000	
 -2.9757690e+000	
 -2.9748540e+000	
 -2.9724120e+000	
 -2.9718020e+000	
 -2.9714970e+000	
 -2.9727170e+000	
 -2.9739380e+000	
 -2.9748540e+000	
 -2.9742430e+000	
 -2.9751590e+000	
 -2.9757690e+000	
 -2.9757690e+000	
 -2.9748540e+000	
 -2.9739380e+000	
 -2.9699710e+000	
 -2.9644780e+000	
 -2.9580690e+000	
 -2.9507450e+000	
 -2.9437260e+000	
 -2.9354860e+000	
 -2.9257200e+000	
 -2.9150390e+000	
 -2.9043580e+000	
 -2.8927610e+000	
 -2.8790280e+000	
 -2.8652950e+000	
 -2.8515620e+000	
 -2.8363040e+000	
 -2.8204350e+000	
 -2.8027340e+000	
 -2.7880860e+000	
 -2.7746580e+000	
 -2.7618410e+000	
 -2.7471920e+000	
 -2.7337650e+000	
 -2.7197270e+000	
 -2.7105710e+000	
 -2.6992800e+000	
 -2.6895140e+000	
 -2.6785280e+000	
 -2.6702880e+000	
 -2.6611330e+000	
 -2.6538090e+000	
 -2.6467900e+000	
 -2.6406860e+000	
 -2.6342770e+000	
 -2.6266480e+000	
 -2.6187130e+000	
 -2.6101680e+000	
 -2.6007080e+000	
 -2.5900270e+000	
 -2.5769040e+000	
 -2.5643920e+000	
 -2.5521850e+000	
 -2.5402830e+000	
 -2.5277710e+000	
 -2.5122070e+000	
 -2.4972530e+000	
 -2.4853520e+000	
 -2.4728390e+000	
 -2.4633790e+000	
 -2.4520870e+000	
 -2.4392700e+000	
 -2.4288940e+000	
 -2.4185180e+000	
 -2.4099730e+000	
 -2.4014280e+000	
 -2.3950200e+000	
 -2.3898320e+000	
 -2.3855590e+000	
 -2.3834230e+000	
 -2.3822020e+000	
 -2.3815920e+000	
 -2.3828120e+000	
 -2.3846440e+000	
 -2.3870850e+000	
 -2.3928830e+000	
 -2.3953250e+000	
 -2.4020390e+000	
 -2.4069210e+000	
 -2.4139400e+000	
 -2.4212650e+000	
 -2.4267580e+000	
 -2.4310300e+000	
 -2.4346920e+000	
 -2.4392700e+000	
 -2.4462890e+000	
 -2.4514770e+000	
 -2.4578860e+000	
 -2.4646000e+000	
 -2.4713130e+000	
 -2.4798580e+000	
 -2.4847410e+000	
 -2.4905400e+000	
 -2.4960330e+000	
 -2.5009160e+000	
 -2.5067140e+000	
 -2.5122070e+000	
 -2.5167850e+000	
 -2.5216670e+000	
 -2.5265500e+000	
 -2.5326540e+000	
 -2.5390620e+000	
 -2.5445560e+000	
 -2.5531010e+000	
 -2.5625610e+000	
 -2.5723270e+000	
 -2.5811770e+000	
 -2.5897220e+000	
 -2.6010130e+000	
 -2.6113890e+000	
 -2.6232910e+000	
 -2.6333620e+000	
 -2.6458740e+000	
 -2.6586910e+000	
 -2.6730350e+000	
 -2.6873780e+000	
 -2.7017210e+000	
 -2.7163700e+000	
 -2.7313230e+000	
 -2.7450560e+000	
 -2.7590940e+000	
 -2.7719120e+000	
 -2.7853390e+000	
 -2.7990720e+000	
 -2.8082280e+000	
 -2.8176880e+000	
 -2.8265380e+000	
 -2.8341670e+000	
 -2.8405760e+000	
 -2.8488160e+000	
 -2.8567500e+000	
 -2.8634640e+000	
 -2.8698730e+000	
 -2.8753660e+000	
 -2.8802490e+000	
 -2.8839110e+000	
 -2.8884890e+000	
 -2.8906250e+000	
 -2.8933720e+000	
 -2.8958130e+000	
 -2.9006960e+000	
 -2.9028320e+000	
 -2.9080200e+000	
 -2.9104610e+000	
 -2.9144290e+000	
 -2.9180910e+000	
 -2.9205320e+000	
 -2.9208370e+000	
 -2.9229740e+000	
 -2.9260250e+000	
 -2.9278560e+000	
 -2.9290770e+000	
 -2.9290770e+000	
 -2.9296880e+000	
 -2.9290770e+000	
 -2.9299930e+000	
 -2.9306030e+000	
 -2.9324340e+000	
 -2.9336550e+000	
 -2.9348750e+000	
 -2.9360960e+000	
 -2.9354860e+000	
 -2.9357910e+000	
 -2.9376220e+000	
 -2.9376220e+000	
 -2.9373170e+000	
 -2.9376220e+000	
 -2.9388430e+000	
 -2.9406740e+000	
 -2.9428100e+000	
 -2.9431150e+000	
 -2.9425050e+000	
 -2.9418950e+000	
 -2.9415890e+000	
 -2.9403690e+000	
 -2.9415890e+000	
 -2.9428100e+000	
 -2.9464720e+000	
 -2.9455570e+000	
 -2.9473880e+000	
 -2.9513550e+000	
 -2.9531860e+000	
 -2.9571530e+000	
 -2.9629520e+000	
 -2.9675290e+000	
 -2.9724120e+000	
 -2.9779050e+000	
 -2.9830930e+000	
 -2.9888920e+000	
 -2.9959110e+000	
 -3.0010990e+000	
 -3.0087280e+000	
 -3.0169680e+000	
 -3.0239870e+000	
 -3.0267330e+000	
 -3.0267330e+000	
 -3.0206300e+000	
 -3.0084230e+000	
 -2.9901120e+000	
 -2.9644780e+000	
 -2.9330440e+000	
 -2.8924560e+000	
 -2.8430180e+000	
 -2.7828980e+000	
 -2.7163700e+000	
 -2.6354980e+000	
 -2.5399780e+000	
 -2.4334720e+000	
 -2.3165890e+000	
 -2.1899410e+000	
 -2.0471190e+000	
 -1.8884280e+000	
 -1.7169190e+000	
 -1.5313720e+000	
 -1.3259890e+000	
 -1.1068730e+000	
 -8.7280300e-001	
 -6.2927200e-001	
 -3.7414600e-001	
 -1.3458300e-001	
  8.2703000e-002	
  2.7404800e-001	
  4.4281000e-001	
  5.8960000e-001	
  7.1746800e-001	
  8.3221400e-001	
  9.3109100e-001	
  1.0171510e+000	
  1.0949710e+000	
  1.1654660e+000	
  1.2295530e+000	
  1.2869260e+000	
  1.3381960e+000	
  1.3861080e+000	
  1.4285280e+000	
  1.4617920e+000	
  1.4816280e+000	
  1.4712520e+000	
  1.4263920e+000	
  1.3531490e+000	
  1.2637330e+000	
  1.1575320e+000	
  1.0244750e+000	
  8.7005600e-001	
  7.0037800e-001	
  5.1818800e-001	
  3.1951900e-001	
  1.1444100e-001	
 -9.9182000e-002	
 -3.1402600e-001	
 -5.2703900e-001	
 -7.3394800e-001	
 -9.3872100e-001	
 -1.1352540e+000	
 -1.3235470e+000	
 -1.4978030e+000	
 -1.6546630e+000	
 -1.7971800e+000	
 -1.9244380e+000	
 -2.0352170e+000	
 -2.1389770e+000	
 -2.2341920e+000	
 -2.3214720e+000	
 -2.4002080e+000	
 -2.4749760e+000	
 -2.5466920e+000	
 -2.6132200e+000	
 -2.6742550e+000	
 -2.7294920e+000	
 -2.7813720e+000	
 -2.8302000e+000	
 -2.8738400e+000	
 -2.9141240e+000	
 -2.9498290e+000	
 -2.9849240e+000	
 -3.0166630e+000	
 -3.0447390e+000	
 -3.0697630e+000	
 -3.0911250e+000	
 -3.1100460e+000	
 -3.1225590e+000	
 -3.1329350e+000	
 -3.1420900e+000	
 -3.1506350e+000	
 -3.1539920e+000	
 -3.1552120e+000	
 -3.1530760e+000	
 -3.1494140e+000	
 -3.1445310e+000	
 -3.1372070e+000	
 -3.1289670e+000	
 -3.1198120e+000	
 -3.1103520e+000	
 -3.1002810e+000	
 -3.0914310e+000	
 -3.0816650e+000	
 -3.0718990e+000	
 -3.0603030e+000	
 -3.0493160e+000	
 -3.0358890e+000	
 -3.0227660e+000	
 -3.0096440e+000	
 -2.9989620e+000	
 -2.9873660e+000	
 -2.9782100e+000	
 -2.9672240e+000	
 -2.9580690e+000	
 -2.9483030e+000	
 -2.9367070e+000	
 -2.9272460e+000	
 -2.9174800e+000	
 -2.9058840e+000	
 -2.8952030e+000	
 -2.8851320e+000	
 -2.8747560e+000	
 -2.8634640e+000	
 -2.8536990e+000	
 -2.8421020e+000	
 -2.8314210e+000	
 -2.8207400e+000	
 -2.8140260e+000	
 -2.8060910e+000	
 -2.7975460e+000	
 -2.7883910e+000	
 -2.7786250e+000	
 -2.7685550e+000	
 -2.7600100e+000	
 -2.7520750e+000	
 -2.7432250e+000	
 -2.7349850e+000	
 -2.7273560e+000	
 -2.7188110e+000	
 -2.7087400e+000	
 -2.6998900e+000	
 -2.6916500e+000	
 -2.6818850e+000	
 -2.6736450e+000	
 -2.6660160e+000	
 -2.6574710e+000	
 -2.6480100e+000	
 -2.6367190e+000	
 -2.6263430e+000	
 -2.6177980e+000	
 -2.6086430e+000	
 -2.5997920e+000	
 -2.5881960e+000	
 -2.5784300e+000	
 -2.5695800e+000	
 -2.5622560e+000	
 -2.5527950e+000	
 -2.5457760e+000	
 -2.5387570e+000	
 -2.5317380e+000	
 -2.5247190e+000	
 -2.5170900e+000	
 -2.5097660e+000	
 -2.5027470e+000	
 -2.4954220e+000	
 -2.4871830e+000	
 -2.4792480e+000	
 -2.4713130e+000	
 -2.4627690e+000	
 -2.4566650e+000	
 -2.4493410e+000	
 -2.4426270e+000	
 -2.4353030e+000	
 -2.4276730e+000	
 -2.4179080e+000	
 -2.4060060e+000	
 -2.3950200e+000	
 -2.3843380e+000	
 -2.3724370e+000	
 -2.3605350e+000	
 -2.3495480e+000	
 -2.3379520e+000	
 -2.3287960e+000	
 -2.3162840e+000	
 -2.3068240e+000	
 -2.2949220e+000	
 -2.2839360e+000	
 -2.2711180e+000	
 -2.2604370e+000	
 -2.2521970e+000	
 -2.2436520e+000	
 -2.2354130e+000	
 -2.2262570e+000	
 -2.2198490e+000	
 -2.2131350e+000	
 -2.2042850e+000	
 -2.1942140e+000	
 -2.1829220e+000	
 -2.1704100e+000	
 -2.1585080e+000	
 -2.1469120e+000	
 -2.1350100e+000	
 -2.1228030e+000	
 -2.1109010e+000	
 -2.0993040e+000	
 -2.0895390e+000	
 -2.0785520e+000	
 -2.0675660e+000	
 -2.0562740e+000	
 -2.0437620e+000	
 -2.0333860e+000	
 -2.0214840e+000	
 -2.0077510e+000	
 -1.9918820e+000	
 -1.9790650e+000	
 -1.9671630e+000	
 -1.9549560e+000	
 -1.9427490e+000	
 -1.9274900e+000	
 -1.9113160e+000	
 -1.8960570e+000	
 -1.8814090e+000	
 -1.8643190e+000	
 -1.8463130e+000	
 -1.8295290e+000	
 -1.8121340e+000	
 -1.7919920e+000	
 -1.7742920e+000	
 -1.7575070e+000	
 -1.7407230e+000	
 -1.7230220e+000	
 -1.7041020e+000	
 -1.6857910e+000	
 -1.6683960e+000	
 -1.6519170e+000	
 -1.6339110e+000	
 -1.6171260e+000	
 -1.5991210e+000	
 -1.5832520e+000	
 -1.5655520e+000	
 -1.5484620e+000	
 -1.5301510e+000	
 -1.5118410e+000	
 -1.4956670e+000	
 -1.4782710e+000	
 -1.4599610e+000	
 -1.4434810e+000	
 -1.4276120e+000	
 -1.4138790e+000	
 -1.4001460e+000	
 -1.3851930e+000	
 -1.3693240e+000	
 -1.3549800e+000	
 -1.3424680e+000	
 -1.3314820e+000	
 -1.3204960e+000	
 -1.3095090e+000	
 -1.2976070e+000	
 -1.2896730e+000	
 -1.2802120e+000	
 -1.2722780e+000	
 -1.2628170e+000	
 -1.2554930e+000	
 -1.2487790e+000	
 -1.2423710e+000	
 -1.2371830e+000	
 -1.2323000e+000	
 -1.2283330e+000	
 -1.2243650e+000	
 -1.2222290e+000	
 -1.2210080e+000	
 -1.2207030e+000	
 -1.2207030e+000	
 -1.2234500e+000	
 -1.2243650e+000	
 -1.2265010e+000	
 -1.2301640e+000	
 -1.2380980e+000	
 -1.2442020e+000	
 -1.2500000e+000	
 -1.2542720e+000	
 -1.2582400e+000	
 -1.2673950e+000	
 -1.2780760e+000	
 -1.2899780e+000	
 -1.3003540e+000	
 -1.3110350e+000	
 -1.3232420e+000	
 -1.3378910e+000	
 -1.3549800e+000	
 -1.3693240e+000	
 -1.3873290e+000	
 -1.4053340e+000	
 -1.4245610e+000	
 -1.4434810e+000	
 -1.4627080e+000	
 -1.4849850e+000	
 -1.5060420e+000	
 -1.5295410e+000	
 -1.5545650e+000	
 -1.5802000e+000	
 -1.6067500e+000	
 -1.6336060e+000	
 -1.6610720e+000	
 -1.6879270e+000	
 -1.7156980e+000	
 -1.7446900e+000	
 -1.7749020e+000	
 -1.8057250e+000	
 -1.8344120e+000	
 -1.8646240e+000	
 -1.8927000e+000	
 -1.9244380e+000	
 -1.9534300e+000	
 -1.9839480e+000	
 -2.0132450e+000	
 -2.0428470e+000	
 -2.0736690e+000	
 -2.1041870e+000	
 -2.1359250e+000	
 -2.1667480e+000	
 -2.1972660e+000	
 -2.2268680e+000	
 -2.2586060e+000	
 -2.2903440e+000	
 -2.3190310e+000	
 -2.3471070e+000	
 -2.3776250e+000	
 -2.4063110e+000	
 -2.4337770e+000	
 -2.4621580e+000	
 -2.4905400e+000	
 -2.5180050e+000	
 -2.5439450e+000	
 -2.5704960e+000	
 -2.5970460e+000	
 -2.6223750e+000	
 -2.6480100e+000	
 -2.6724240e+000	
 -2.6971440e+000	
 -2.7203370e+000	
 -2.7453610e+000	
 -2.7667240e+000	
 -2.7908330e+000	
 -2.8125000e+000	
 -2.8347780e+000	
 -2.8543090e+000	
 -2.8744510e+000	
 -2.8939820e+000	
 -2.9122920e+000	
 -2.9302980e+000	
 -2.9452510e+000	
 -2.9626460e+000	
 -2.9794310e+000	
 -2.9943850e+000	
